DateTime,Lead 1,Lead 2
2026-01-07 09:52:45.003000+00:00,-0.032967,-0.032967
2026-01-07 09:52:45.007000+00:00,-0.021978,-0.021978
2026-01-07 09:52:45.011000+00:00,-0.032967,-0.021978
2026-01-07 09:52:45.015000+00:00,-0.021978,-0.021978
2026-01-07 09:52:45.019000+00:00,-0.021978,-0.021978
2026-01-07 09:52:45.023000+00:00,-0.021978,-0.032967
2026-01-07 09:52:45.026000+00:00,-0.032967,-0.032967
2026-01-07 09:52:45.030000+00:00,-0.032967,-0.010989
2026-01-07 09:52:45.034000+00:00,-0.021978,0.0
2026-01-07 09:52:45.038000+00:00,-0.021978,-0.021978
2026-01-07 09:52:45.042000+00:00,-0.021978,-0.032967
2026-01-07 09:52:45.046000+00:00,-0.010989,-0.021978
2026-01-07 09:52:45.050000+00:00,-0.010989,-0.021978
2026-01-07 09:52:45.054000+00:00,-0.032967,-0.010989
2026-01-07 09:52:45.058000+00:00,-0.032967,0.010989
2026-01-07 09:52:45.062000+00:00,-0.032967,0.0
2026-01-07 09:52:45.065000+00:00,0.021978,0.010989
2026-01-07 09:52:45.069000+00:00,-0.021978,-0.010989
2026-01-07 09:52:45.073000+00:00,-0.032967,-0.010989
2026-01-07 09:52:45.077000+00:00,-0.021978,0.0
2026-01-07 09:52:45.081000+00:00,-0.021978,0.0
2026-01-07 09:52:45.085000+00:00,-0.010989,-0.010989
2026-01-07 09:52:45.089000+00:00,-0.010989,-0.021978
2026-01-07 09:52:45.093000+00:00,-0.021978,-0.021978
2026-01-07 09:52:45.097000+00:00,-0.021978,-0.021978
2026-01-07 09:52:45.101000+00:00,0.010989,0.0
2026-01-07 09:52:45.105000+00:00,0.021978,-0.010989
2026-01-07 09:52:45.108000+00:00,0.010989,-0.010989
2026-01-07 09:52:45.112000+00:00,0.021978,0.0
2026-01-07 09:52:45.116000+00:00,0.021978,0.010989
2026-01-07 09:52:45.120000+00:00,0.0,-0.010989
2026-01-07 09:52:45.124000+00:00,-0.032967,-0.043956
2026-01-07 09:52:45.128000+00:00,-0.054945,-0.054945
2026-01-07 09:52:45.132000+00:00,-0.054945,-0.054945
2026-01-07 09:52:45.136000+00:00,-0.043956,-0.054945
2026-01-07 09:52:45.140000+00:00,-0.054945,-0.043956
2026-01-07 09:52:45.144000+00:00,-0.021978,-0.043956
2026-01-07 09:52:45.148000+00:00,-0.021978,-0.043956
2026-01-07 09:52:45.151000+00:00,-0.021978,-0.010989
2026-01-07 09:52:45.155000+00:00,-0.032967,0.0
2026-01-07 09:52:45.159000+00:00,-0.032967,0.010989
2026-01-07 09:52:45.163000+00:00,-0.032967,0.0
2026-01-07 09:52:45.167000+00:00,-0.021978,-0.010989
2026-01-07 09:52:45.171000+00:00,-0.021978,-0.032967
2026-01-07 09:52:45.175000+00:00,-0.043956,-0.032967
2026-01-07 09:52:45.179000+00:00,0.010989,0.043956
2026-01-07 09:52:45.183000+00:00,0.142857,0.175824
2026-01-07 09:52:45.187000+00:00,0.296703,0.340659
2026-01-07 09:52:45.190000+00:00,0.505494,0.560439
2026-01-07 09:52:45.194000+00:00,0.758241,0.780219
2026-01-07 09:52:45.198000+00:00,0.945054,0.87912
2026-01-07 09:52:45.202000+00:00,0.956043,0.802197
2026-01-07 09:52:45.206000+00:00,0.615384,0.384615
2026-01-07 09:52:45.210000+00:00,-0.021978,-0.241758
2026-01-07 09:52:45.214000+00:00,-0.65934,-0.802197
2026-01-07 09:52:45.218000+00:00,-0.934065,-0.999999
2026-01-07 09:52:45.222000+00:00,-0.813186,-0.824175
2026-01-07 09:52:45.226000+00:00,-0.604395,-0.571428
2026-01-07 09:52:45.230000+00:00,-0.472527,-0.373626
2026-01-07 09:52:45.233000+00:00,-0.373626,-0.241758
2026-01-07 09:52:45.237000+00:00,-0.296703,-0.175824
2026-01-07 09:52:45.241000+00:00,-0.208791,-0.10989
2026-01-07 09:52:45.245000+00:00,-0.142857,-0.054945
2026-01-07 09:52:45.249000+00:00,-0.131868,-0.054945
2026-01-07 09:52:45.253000+00:00,-0.120879,-0.054945
2026-01-07 09:52:45.257000+00:00,-0.087912,-0.054945
2026-01-07 09:52:45.261000+00:00,-0.076923,-0.065934
2026-01-07 09:52:45.265000+00:00,-0.087912,-0.076923
2026-01-07 09:52:45.269000+00:00,-0.043956,-0.043956
2026-01-07 09:52:45.273000+00:00,-0.032967,-0.043956
2026-01-07 09:52:45.276000+00:00,-0.021978,-0.021978
2026-01-07 09:52:45.280000+00:00,-0.021978,-0.021978
2026-01-07 09:52:45.284000+00:00,-0.054945,-0.043956
2026-01-07 09:52:45.288000+00:00,-0.010989,0.0
2026-01-07 09:52:45.292000+00:00,0.032967,0.043956
2026-01-07 09:52:45.296000+00:00,0.021978,0.043956
2026-01-07 09:52:45.300000+00:00,-0.043956,-0.010989
2026-01-07 09:52:45.304000+00:00,-0.021978,0.010989
2026-01-07 09:52:45.308000+00:00,0.032967,0.054945
2026-01-07 09:52:45.312000+00:00,0.043956,0.043956
2026-01-07 09:52:45.315000+00:00,0.021978,0.010989
2026-01-07 09:52:45.319000+00:00,0.010989,0.010989
2026-01-07 09:52:45.323000+00:00,0.0,0.0
2026-01-07 09:52:45.327000+00:00,-0.010989,0.0
2026-01-07 09:52:45.331000+00:00,0.0,0.0
2026-01-07 09:52:45.335000+00:00,0.010989,0.010989
2026-01-07 09:52:45.339000+00:00,0.021978,0.032967
2026-01-07 09:52:45.343000+00:00,0.065934,0.065934
2026-01-07 09:52:45.347000+00:00,0.054945,0.054945
2026-01-07 09:52:45.351000+00:00,0.032967,0.043956
2026-01-07 09:52:45.355000+00:00,0.032967,0.054945
2026-01-07 09:52:45.358000+00:00,0.043956,0.054945
2026-01-07 09:52:45.362000+00:00,0.054945,0.054945
2026-01-07 09:52:45.366000+00:00,0.054945,0.054945
2026-01-07 09:52:45.370000+00:00,0.087912,0.098901
2026-01-07 09:52:45.374000+00:00,0.098901,0.098901
2026-01-07 09:52:45.378000+00:00,0.087912,0.087912
2026-01-07 09:52:45.382000+00:00,0.087912,0.087912
2026-01-07 09:52:45.386000+00:00,0.076923,0.087912
2026-01-07 09:52:45.390000+00:00,0.065934,0.076923
2026-01-07 09:52:45.394000+00:00,0.054945,0.065934
2026-01-07 09:52:45.398000+00:00,0.021978,0.032967
2026-01-07 09:52:45.401000+00:00,-0.010989,0.0
2026-01-07 09:52:45.405000+00:00,-0.043956,0.0
2026-01-07 09:52:45.409000+00:00,-0.043956,-0.010989
2026-01-07 09:52:45.413000+00:00,-0.032967,-0.010989
2026-01-07 09:52:45.417000+00:00,-0.043956,-0.010989
2026-01-07 09:52:45.421000+00:00,-0.065934,-0.043956
2026-01-07 09:52:45.425000+00:00,-0.076923,-0.076923
2026-01-07 09:52:45.429000+00:00,-0.120879,-0.120879
2026-01-07 09:52:45.433000+00:00,-0.120879,-0.120879
2026-01-07 09:52:45.437000+00:00,-0.098901,-0.098901
2026-01-07 09:52:45.440000+00:00,-0.098901,-0.10989
2026-01-07 09:52:45.444000+00:00,-0.142857,-0.142857
2026-01-07 09:52:45.448000+00:00,-0.153846,-0.153846
2026-01-07 09:52:45.452000+00:00,-0.10989,-0.120879
2026-01-07 09:52:45.456000+00:00,-0.098901,-0.10989
2026-01-07 09:52:45.460000+00:00,-0.098901,-0.10989
2026-01-07 09:52:45.464000+00:00,-0.087912,-0.10989
2026-01-07 09:52:45.468000+00:00,-0.065934,-0.098901
2026-01-07 09:52:45.472000+00:00,-0.043956,-0.087912
2026-01-07 09:52:45.476000+00:00,-0.043956,-0.087912
2026-01-07 09:52:45.480000+00:00,-0.054945,-0.087912
2026-01-07 09:52:45.483000+00:00,-0.021978,-0.054945
2026-01-07 09:52:45.487000+00:00,-0.010989,-0.054945
2026-01-07 09:52:45.491000+00:00,0.0,-0.032967
2026-01-07 09:52:45.495000+00:00,0.021978,-0.010989
2026-01-07 09:52:45.499000+00:00,0.021978,-0.010989
2026-01-07 09:52:45.503000+00:00,0.0,-0.032967
2026-01-07 09:52:45.507000+00:00,0.0,-0.021978
2026-01-07 09:52:45.511000+00:00,-0.032967,-0.032967
2026-01-07 09:52:45.515000+00:00,-0.021978,-0.032967
2026-01-07 09:52:45.519000+00:00,0.0,-0.021978
2026-01-07 09:52:45.523000+00:00,0.0,-0.021978
2026-01-07 09:52:45.526000+00:00,-0.010989,-0.032967
2026-01-07 09:52:45.530000+00:00,0.0,-0.010989
2026-01-07 09:52:45.534000+00:00,0.010989,0.010989
2026-01-07 09:52:45.538000+00:00,0.010989,0.010989
2026-01-07 09:52:45.542000+00:00,-0.021978,-0.010989
2026-01-07 09:52:45.546000+00:00,-0.054945,-0.054945
2026-01-07 09:52:45.550000+00:00,-0.021978,-0.032967
2026-01-07 09:52:45.554000+00:00,0.032967,0.032967
2026-01-07 09:52:45.558000+00:00,0.021978,0.021978
2026-01-07 09:52:45.562000+00:00,0.010989,0.0
2026-01-07 09:52:45.565000+00:00,-0.010989,-0.021978
2026-01-07 09:52:45.569000+00:00,-0.021978,-0.021978
2026-01-07 09:52:45.573000+00:00,-0.032967,-0.032967
2026-01-07 09:52:45.577000+00:00,-0.032967,-0.021978
2026-01-07 09:52:45.581000+00:00,-0.043956,-0.021978
2026-01-07 09:52:45.585000+00:00,-0.032967,-0.032967
2026-01-07 09:52:45.589000+00:00,-0.043956,-0.021978
2026-01-07 09:52:45.593000+00:00,-0.065934,-0.021978
2026-01-07 09:52:45.597000+00:00,-0.043956,-0.021978
2026-01-07 09:52:45.601000+00:00,-0.043956,-0.032967
2026-01-07 09:52:45.605000+00:00,-0.010989,-0.010989
2026-01-07 09:52:45.608000+00:00,0.0,0.010989
2026-01-07 09:52:45.612000+00:00,-0.032967,-0.021978
2026-01-07 09:52:45.616000+00:00,-0.021978,-0.021978
2026-01-07 09:52:45.620000+00:00,0.010989,0.0
2026-01-07 09:52:45.624000+00:00,0.010989,0.010989
2026-01-07 09:52:45.628000+00:00,-0.010989,-0.010989
2026-01-07 09:52:45.632000+00:00,0.0,0.0
2026-01-07 09:52:45.636000+00:00,-0.010989,-0.021978
2026-01-07 09:52:45.640000+00:00,-0.043956,-0.032967
2026-01-07 09:52:45.644000+00:00,-0.021978,-0.010989
2026-01-07 09:52:45.648000+00:00,-0.010989,0.0
2026-01-07 09:52:45.651000+00:00,-0.010989,0.0
2026-01-07 09:52:45.655000+00:00,-0.032967,-0.010989
2026-01-07 09:52:45.659000+00:00,-0.054945,-0.021978
2026-01-07 09:52:45.663000+00:00,-0.032967,-0.010989
2026-01-07 09:52:45.667000+00:00,-0.032967,-0.010989
2026-01-07 09:52:45.671000+00:00,-0.043956,-0.032967
2026-01-07 09:52:45.675000+00:00,-0.032967,-0.032967
2026-01-07 09:52:45.679000+00:00,-0.021978,-0.010989
2026-01-07 09:52:45.683000+00:00,-0.010989,-0.010989
2026-01-07 09:52:45.687000+00:00,-0.010989,-0.010989
2026-01-07 09:52:45.690000+00:00,0.0,0.010989
2026-01-07 09:52:45.694000+00:00,0.0,0.0
2026-01-07 09:52:45.698000+00:00,-0.021978,-0.021978
2026-01-07 09:52:45.702000+00:00,-0.032967,-0.021978
2026-01-07 09:52:45.706000+00:00,-0.021978,0.0
2026-01-07 09:52:45.710000+00:00,0.0,0.010989
2026-01-07 09:52:45.714000+00:00,0.010989,0.010989
2026-01-07 09:52:45.718000+00:00,0.010989,0.010989
2026-01-07 09:52:45.722000+00:00,-0.010989,0.0
2026-01-07 09:52:45.726000+00:00,-0.021978,-0.021978
2026-01-07 09:52:45.730000+00:00,-0.010989,-0.032967
2026-01-07 09:52:45.733000+00:00,-0.010989,-0.010989
2026-01-07 09:52:45.737000+00:00,0.0,0.0
2026-01-07 09:52:45.741000+00:00,0.010989,0.010989
2026-01-07 09:52:45.745000+00:00,-0.010989,-0.010989
2026-01-07 09:52:45.749000+00:00,-0.021978,-0.021978
2026-01-07 09:52:45.753000+00:00,0.0,-0.032967
2026-01-07 09:52:45.757000+00:00,-0.032967,-0.043956
2026-01-07 09:52:45.761000+00:00,-0.054945,-0.032967
2026-01-07 09:52:45.765000+00:00,-0.076923,-0.021978
2026-01-07 09:52:45.769000+00:00,-0.076923,-0.043956
2026-01-07 09:52:45.773000+00:00,-0.043956,-0.043956
2026-01-07 09:52:45.776000+00:00,-0.021978,-0.032967
2026-01-07 09:52:45.780000+00:00,-0.021978,-0.043956
2026-01-07 09:52:45.784000+00:00,-0.021978,-0.032967
2026-01-07 09:52:45.788000+00:00,-0.010989,0.0
2026-01-07 09:52:45.792000+00:00,0.0,0.010989
2026-01-07 09:52:45.796000+00:00,-0.021978,0.0
2026-01-07 09:52:45.800000+00:00,-0.054945,-0.032967
2026-01-07 09:52:45.804000+00:00,-0.043956,-0.010989
2026-01-07 09:52:45.808000+00:00,0.054945,0.087912
2026-01-07 09:52:45.812000+00:00,0.208791,0.252747
2026-01-07 09:52:45.815000+00:00,0.43956,0.472527
2026-01-07 09:52:45.819000+00:00,0.670329,0.703296
2026-01-07 09:52:45.823000+00:00,0.945054,0.890109
2026-01-07 09:52:45.827000+00:00,1.065933,0.934065
2026-01-07 09:52:45.831000+00:00,0.890109,0.703296
2026-01-07 09:52:45.835000+00:00,0.351648,0.131868
2026-01-07 09:52:45.839000+00:00,-0.362637,-0.527472
2026-01-07 09:52:45.843000+00:00,-0.846153,-0.945054
2026-01-07 09:52:45.847000+00:00,-0.956043,-0.98901
2026-01-07 09:52:45.851000+00:00,-0.813186,-0.780219
2026-01-07 09:52:45.855000+00:00,-0.65934,-0.560439
2026-01-07 09:52:45.858000+00:00,-0.516483,-0.373626
2026-01-07 09:52:45.862000+00:00,-0.384615,-0.241758
2026-01-07 09:52:45.866000+00:00,-0.263736,-0.153846
2026-01-07 09:52:45.870000+00:00,-0.175824,-0.087912
2026-01-07 09:52:45.874000+00:00,-0.120879,-0.065934
2026-01-07 09:52:45.878000+00:00,-0.087912,-0.054945
2026-01-07 09:52:45.882000+00:00,-0.076923,-0.043956
2026-01-07 09:52:45.886000+00:00,-0.10989,-0.054945
2026-01-07 09:52:45.890000+00:00,-0.10989,-0.043956
2026-01-07 09:52:45.894000+00:00,-0.087912,-0.021978
2026-01-07 09:52:45.898000+00:00,-0.054945,-0.021978
2026-01-07 09:52:45.901000+00:00,-0.021978,0.0
2026-01-07 09:52:45.905000+00:00,-0.021978,-0.010989
2026-01-07 09:52:45.909000+00:00,-0.021978,0.0
2026-01-07 09:52:45.913000+00:00,-0.010989,0.0
2026-01-07 09:52:45.917000+00:00,0.021978,0.010989
2026-01-07 09:52:45.921000+00:00,0.021978,0.021978
2026-01-07 09:52:45.925000+00:00,-0.021978,0.0
2026-01-07 09:52:45.929000+00:00,-0.032967,-0.010989
2026-01-07 09:52:45.933000+00:00,-0.010989,-0.010989
2026-01-07 09:52:45.937000+00:00,-0.021978,-0.021978
2026-01-07 09:52:45.940000+00:00,-0.010989,-0.010989
2026-01-07 09:52:45.944000+00:00,0.032967,0.032967
2026-01-07 09:52:45.948000+00:00,0.032967,0.032967
2026-01-07 09:52:45.952000+00:00,0.010989,0.032967
2026-01-07 09:52:45.956000+00:00,0.010989,0.021978
2026-01-07 09:52:45.960000+00:00,0.021978,0.032967
2026-01-07 09:52:45.964000+00:00,0.043956,0.054945
2026-01-07 09:52:45.968000+00:00,0.054945,0.065934
2026-01-07 09:52:45.972000+00:00,0.054945,0.054945
2026-01-07 09:52:45.976000+00:00,0.065934,0.054945
2026-01-07 09:52:45.980000+00:00,0.065934,0.043956
2026-01-07 09:52:45.983000+00:00,0.043956,0.054945
2026-01-07 09:52:45.987000+00:00,0.076923,0.076923
2026-01-07 09:52:45.991000+00:00,0.076923,0.076923
2026-01-07 09:52:45.995000+00:00,0.076923,0.076923
2026-01-07 09:52:45.999000+00:00,0.076923,0.087912
2026-01-07 09:52:46.003000+00:00,0.076923,0.087912
2026-01-07 09:52:46.007000+00:00,0.065934,0.065934
2026-01-07 09:52:46.011000+00:00,0.021978,0.043956
2026-01-07 09:52:46.015000+00:00,0.054945,0.076923
2026-01-07 09:52:46.019000+00:00,0.065934,0.087912
2026-01-07 09:52:46.023000+00:00,0.054945,0.065934
2026-01-07 09:52:46.026000+00:00,0.032967,0.043956
2026-01-07 09:52:46.030000+00:00,0.021978,0.021978
2026-01-07 09:52:46.034000+00:00,-0.021978,0.0
2026-01-07 09:52:46.038000+00:00,-0.054945,-0.010989
2026-01-07 09:52:46.042000+00:00,-0.076923,-0.043956
2026-01-07 09:52:46.046000+00:00,-0.054945,-0.054945
2026-01-07 09:52:46.050000+00:00,-0.076923,-0.076923
2026-01-07 09:52:46.054000+00:00,-0.087912,-0.087912
2026-01-07 09:52:46.058000+00:00,-0.131868,-0.10989
2026-01-07 09:52:46.062000+00:00,-0.10989,-0.10989
2026-01-07 09:52:46.065000+00:00,-0.098901,-0.098901
2026-01-07 09:52:46.069000+00:00,-0.10989,-0.098901
2026-01-07 09:52:46.073000+00:00,-0.142857,-0.10989
2026-01-07 09:52:46.077000+00:00,-0.153846,-0.153846
2026-01-07 09:52:46.081000+00:00,-0.153846,-0.164835
2026-01-07 09:52:46.085000+00:00,-0.087912,-0.10989
2026-01-07 09:52:46.089000+00:00,-0.076923,-0.087912
2026-01-07 09:52:46.093000+00:00,-0.065934,-0.076923
2026-01-07 09:52:46.097000+00:00,-0.087912,-0.098901
2026-01-07 09:52:46.101000+00:00,-0.087912,-0.087912
2026-01-07 09:52:46.105000+00:00,-0.087912,-0.065934
2026-01-07 09:52:46.108000+00:00,-0.043956,-0.043956
2026-01-07 09:52:46.112000+00:00,-0.032967,-0.032967
2026-01-07 09:52:46.116000+00:00,-0.021978,-0.043956
2026-01-07 09:52:46.120000+00:00,-0.010989,-0.032967
2026-01-07 09:52:46.124000+00:00,0.0,-0.021978
2026-01-07 09:52:46.128000+00:00,-0.032967,-0.021978
2026-01-07 09:52:46.132000+00:00,-0.043956,-0.021978
2026-01-07 09:52:46.136000+00:00,-0.032967,-0.021978
2026-01-07 09:52:46.140000+00:00,0.010989,-0.010989
2026-01-07 09:52:46.144000+00:00,-0.010989,-0.010989
2026-01-07 09:52:46.148000+00:00,-0.021978,-0.021978
2026-01-07 09:52:46.151000+00:00,-0.021978,-0.021978
2026-01-07 09:52:46.155000+00:00,-0.021978,-0.021978
2026-01-07 09:52:46.159000+00:00,-0.021978,-0.043956
2026-01-07 09:52:46.163000+00:00,-0.032967,-0.043956
2026-01-07 09:52:46.167000+00:00,-0.021978,-0.010989
2026-01-07 09:52:46.171000+00:00,0.021978,0.043956
2026-01-07 09:52:46.175000+00:00,0.021978,0.032967
2026-01-07 09:52:46.179000+00:00,0.0,0.010989
2026-01-07 09:52:46.183000+00:00,0.010989,-0.010989
2026-01-07 09:52:46.187000+00:00,-0.021978,-0.032967
2026-01-07 09:52:46.190000+00:00,-0.032967,-0.021978
2026-01-07 09:52:46.194000+00:00,-0.010989,0.0
2026-01-07 09:52:46.198000+00:00,0.0,0.010989
2026-01-07 09:52:46.202000+00:00,-0.032967,-0.032967
2026-01-07 09:52:46.206000+00:00,-0.021978,-0.043956
2026-01-07 09:52:46.210000+00:00,-0.010989,-0.032967
2026-01-07 09:52:46.214000+00:00,-0.010989,-0.021978
2026-01-07 09:52:46.218000+00:00,0.0,0.0
2026-01-07 09:52:46.222000+00:00,0.0,-0.010989
2026-01-07 09:52:46.226000+00:00,-0.021978,-0.032967
2026-01-07 09:52:46.230000+00:00,-0.032967,-0.032967
2026-01-07 09:52:46.233000+00:00,0.0,-0.032967
2026-01-07 09:52:46.237000+00:00,-0.021978,-0.021978
2026-01-07 09:52:46.241000+00:00,-0.032967,-0.010989
2026-01-07 09:52:46.245000+00:00,-0.021978,-0.010989
2026-01-07 09:52:46.249000+00:00,-0.043956,-0.032967
2026-01-07 09:52:46.253000+00:00,-0.043956,-0.021978
2026-01-07 09:52:46.257000+00:00,-0.010989,0.0
2026-01-07 09:52:46.261000+00:00,0.010989,0.0
2026-01-07 09:52:46.265000+00:00,0.010989,-0.010989
2026-01-07 09:52:46.269000+00:00,0.0,-0.010989
2026-01-07 09:52:46.273000+00:00,0.0,-0.032967
2026-01-07 09:52:46.276000+00:00,-0.021978,-0.021978
2026-01-07 09:52:46.280000+00:00,-0.021978,-0.010989
2026-01-07 09:52:46.284000+00:00,0.0,-0.010989
2026-01-07 09:52:46.288000+00:00,-0.010989,-0.021978
2026-01-07 09:52:46.292000+00:00,-0.032967,-0.010989
2026-01-07 09:52:46.296000+00:00,-0.032967,-0.021978
2026-01-07 09:52:46.300000+00:00,-0.010989,0.0
2026-01-07 09:52:46.304000+00:00,0.0,0.0
2026-01-07 09:52:46.308000+00:00,-0.032967,-0.010989
2026-01-07 09:52:46.312000+00:00,-0.032967,-0.010989
2026-01-07 09:52:46.315000+00:00,-0.021978,-0.010989
2026-01-07 09:52:46.319000+00:00,-0.021978,-0.010989
2026-01-07 09:52:46.323000+00:00,-0.021978,-0.010989
2026-01-07 09:52:46.327000+00:00,-0.021978,0.0
2026-01-07 09:52:46.331000+00:00,0.0,0.010989
2026-01-07 09:52:46.335000+00:00,0.032967,0.021978
2026-01-07 09:52:46.339000+00:00,0.021978,0.021978
2026-01-07 09:52:46.343000+00:00,0.010989,0.010989
2026-01-07 09:52:46.347000+00:00,0.0,0.0
2026-01-07 09:52:46.351000+00:00,-0.032967,-0.021978
2026-01-07 09:52:46.355000+00:00,-0.021978,-0.021978
2026-01-07 09:52:46.358000+00:00,0.0,0.0
2026-01-07 09:52:46.362000+00:00,0.021978,0.021978
2026-01-07 09:52:46.366000+00:00,0.021978,0.032967
2026-01-07 09:52:46.370000+00:00,-0.010989,-0.010989
2026-01-07 09:52:46.374000+00:00,-0.043956,-0.032967
2026-01-07 09:52:46.378000+00:00,-0.043956,-0.032967
2026-01-07 09:52:46.382000+00:00,-0.032967,-0.032967
2026-01-07 09:52:46.386000+00:00,-0.043956,-0.043956
2026-01-07 09:52:46.390000+00:00,-0.054945,-0.054945
2026-01-07 09:52:46.394000+00:00,-0.054945,-0.043956
2026-01-07 09:52:46.398000+00:00,-0.032967,-0.010989
2026-01-07 09:52:46.401000+00:00,-0.010989,0.0
2026-01-07 09:52:46.405000+00:00,-0.010989,-0.010989
2026-01-07 09:52:46.409000+00:00,-0.021978,-0.032967
2026-01-07 09:52:46.413000+00:00,-0.021978,-0.032967
2026-01-07 09:52:46.417000+00:00,0.0,-0.010989
2026-01-07 09:52:46.421000+00:00,0.0,0.0
2026-01-07 09:52:46.425000+00:00,-0.043956,-0.010989
2026-01-07 09:52:46.429000+00:00,-0.054945,0.0
2026-01-07 09:52:46.433000+00:00,0.087912,0.120879
2026-01-07 09:52:46.437000+00:00,0.274725,0.307692
2026-01-07 09:52:46.440000+00:00,0.505494,0.538461
2026-01-07 09:52:46.444000+00:00,0.76923,0.76923
2026-01-07 09:52:46.448000+00:00,0.98901,0.934065
2026-01-07 09:52:46.452000+00:00,1.043955,0.901098
2026-01-07 09:52:46.456000+00:00,0.758241,0.560439
2026-01-07 09:52:46.460000+00:00,0.164835,-0.054945
2026-01-07 09:52:46.464000+00:00,-0.494505,-0.648351
2026-01-07 09:52:46.468000+00:00,-0.835164,-0.934065
2026-01-07 09:52:46.472000+00:00,-0.890109,-0.890109
2026-01-07 09:52:46.476000+00:00,-0.758241,-0.692307
2026-01-07 09:52:46.480000+00:00,-0.615384,-0.483516
2026-01-07 09:52:46.483000+00:00,-0.461538,-0.307692
2026-01-07 09:52:46.487000+00:00,-0.307692,-0.164835
2026-01-07 09:52:46.491000+00:00,-0.208791,-0.10989
2026-01-07 09:52:46.495000+00:00,-0.153846,-0.098901
2026-01-07 09:52:46.499000+00:00,-0.153846,-0.087912
2026-01-07 09:52:46.503000+00:00,-0.120879,-0.087912
2026-01-07 09:52:46.507000+00:00,-0.087912,-0.054945
2026-01-07 09:52:46.511000+00:00,-0.065934,-0.010989
2026-01-07 09:52:46.515000+00:00,-0.054945,-0.010989
2026-01-07 09:52:46.519000+00:00,-0.010989,-0.010989
2026-01-07 09:52:46.523000+00:00,-0.032967,-0.021978
2026-01-07 09:52:46.526000+00:00,-0.043956,-0.043956
2026-01-07 09:52:46.530000+00:00,-0.076923,-0.043956
2026-01-07 09:52:46.534000+00:00,-0.021978,0.010989
2026-01-07 09:52:46.538000+00:00,0.021978,0.043956
2026-01-07 09:52:46.542000+00:00,0.010989,0.021978
2026-01-07 09:52:46.546000+00:00,-0.010989,0.010989
2026-01-07 09:52:46.550000+00:00,0.0,0.021978
2026-01-07 09:52:46.554000+00:00,0.010989,0.021978
2026-01-07 09:52:46.558000+00:00,-0.010989,-0.010989
2026-01-07 09:52:46.562000+00:00,0.0,0.010989
2026-01-07 09:52:46.565000+00:00,0.021978,0.010989
2026-01-07 09:52:46.569000+00:00,0.021978,0.021978
2026-01-07 09:52:46.573000+00:00,0.0,0.032967
2026-01-07 09:52:46.577000+00:00,0.021978,0.021978
2026-01-07 09:52:46.581000+00:00,0.010989,0.021978
2026-01-07 09:52:46.585000+00:00,-0.010989,0.021978
2026-01-07 09:52:46.589000+00:00,0.0,0.032967
2026-01-07 09:52:46.593000+00:00,0.054945,0.065934
2026-01-07 09:52:46.597000+00:00,0.065934,0.076923
2026-01-07 09:52:46.601000+00:00,0.032967,0.054945
2026-01-07 09:52:46.605000+00:00,0.032967,0.043956
2026-01-07 09:52:46.608000+00:00,0.043956,0.043956
2026-01-07 09:52:46.612000+00:00,0.054945,0.032967
2026-01-07 09:52:46.616000+00:00,0.098901,0.065934
2026-01-07 09:52:46.620000+00:00,0.098901,0.087912
2026-01-07 09:52:46.624000+00:00,0.087912,0.076923
2026-01-07 09:52:46.628000+00:00,0.076923,0.076923
2026-01-07 09:52:46.632000+00:00,0.032967,0.054945
2026-01-07 09:52:46.636000+00:00,0.021978,0.043956
2026-01-07 09:52:46.640000+00:00,0.054945,0.076923
2026-01-07 09:52:46.644000+00:00,0.054945,0.065934
2026-01-07 09:52:46.648000+00:00,0.054945,0.065934
2026-01-07 09:52:46.651000+00:00,0.043956,0.054945
2026-01-07 09:52:46.655000+00:00,0.010989,0.021978
2026-01-07 09:52:46.659000+00:00,-0.010989,-0.010989
2026-01-07 09:52:46.663000+00:00,-0.076923,-0.065934
2026-01-07 09:52:46.667000+00:00,-0.065934,-0.054945
2026-01-07 09:52:46.671000+00:00,-0.032967,-0.032967
2026-01-07 09:52:46.675000+00:00,-0.054945,-0.054945
2026-01-07 09:52:46.679000+00:00,-0.065934,-0.065934
2026-01-07 09:52:46.683000+00:00,-0.087912,-0.087912
2026-01-07 09:52:46.687000+00:00,-0.120879,-0.120879
2026-01-07 09:52:46.690000+00:00,-0.120879,-0.120879
2026-01-07 09:52:46.694000+00:00,-0.120879,-0.10989
2026-01-07 09:52:46.698000+00:00,-0.131868,-0.120879
2026-01-07 09:52:46.702000+00:00,-0.120879,-0.120879
2026-01-07 09:52:46.706000+00:00,-0.076923,-0.098901
2026-01-07 09:52:46.710000+00:00,-0.054945,-0.076923
2026-01-07 09:52:46.714000+00:00,-0.076923,-0.087912
2026-01-07 09:52:46.718000+00:00,-0.10989,-0.10989
2026-01-07 09:52:46.722000+00:00,-0.120879,-0.120879
2026-01-07 09:52:46.726000+00:00,-0.076923,-0.076923
2026-01-07 09:52:46.730000+00:00,-0.032967,-0.032967
2026-01-07 09:52:46.733000+00:00,-0.032967,-0.043956
2026-01-07 09:52:46.737000+00:00,-0.032967,-0.054945
2026-01-07 09:52:46.741000+00:00,-0.021978,-0.043956
2026-01-07 09:52:46.745000+00:00,-0.010989,-0.021978
2026-01-07 09:52:46.749000+00:00,-0.010989,-0.010989
2026-01-07 09:52:46.753000+00:00,-0.010989,-0.010989
2026-01-07 09:52:46.757000+00:00,-0.032967,-0.021978
2026-01-07 09:52:46.761000+00:00,-0.032967,-0.021978
2026-01-07 09:52:46.765000+00:00,-0.021978,0.0
2026-01-07 09:52:46.769000+00:00,-0.021978,0.0
2026-01-07 09:52:46.773000+00:00,-0.032967,-0.021978
2026-01-07 09:52:46.776000+00:00,-0.021978,-0.010989
2026-01-07 09:52:46.780000+00:00,0.021978,-0.010989
2026-01-07 09:52:46.784000+00:00,0.0,-0.021978
2026-01-07 09:52:46.788000+00:00,-0.054945,-0.065934
2026-01-07 09:52:46.792000+00:00,-0.043956,-0.043956
2026-01-07 09:52:46.796000+00:00,0.010989,0.021978
2026-01-07 09:52:46.800000+00:00,0.032967,0.043956
2026-01-07 09:52:46.804000+00:00,0.021978,0.010989
2026-01-07 09:52:46.808000+00:00,0.010989,0.0
2026-01-07 09:52:46.812000+00:00,0.0,0.0
2026-01-07 09:52:46.815000+00:00,-0.021978,0.0
2026-01-07 09:52:46.819000+00:00,-0.021978,-0.021978
2026-01-07 09:52:46.823000+00:00,-0.032967,-0.032967
2026-01-07 09:52:46.827000+00:00,-0.043956,-0.032967
2026-01-07 09:52:46.831000+00:00,-0.032967,0.0
2026-01-07 09:52:46.835000+00:00,-0.032967,-0.021978
2026-01-07 09:52:46.839000+00:00,-0.032967,-0.010989
2026-01-07 09:52:46.843000+00:00,-0.010989,0.0
2026-01-07 09:52:46.847000+00:00,0.010989,0.021978
2026-01-07 09:52:46.851000+00:00,0.0,0.0
2026-01-07 09:52:46.855000+00:00,-0.021978,-0.032967
2026-01-07 09:52:46.858000+00:00,-0.010989,-0.032967
2026-01-07 09:52:46.862000+00:00,-0.021978,-0.032967
2026-01-07 09:52:46.866000+00:00,-0.021978,-0.021978
2026-01-07 09:52:46.870000+00:00,-0.010989,0.0
2026-01-07 09:52:46.874000+00:00,0.010989,0.010989
2026-01-07 09:52:46.878000+00:00,0.010989,0.0
2026-01-07 09:52:46.882000+00:00,-0.010989,-0.021978
2026-01-07 09:52:46.886000+00:00,-0.021978,-0.021978
2026-01-07 09:52:46.890000+00:00,0.0,0.0
2026-01-07 09:52:46.894000+00:00,0.0,0.0
2026-01-07 09:52:46.898000+00:00,-0.043956,-0.032967
2026-01-07 09:52:46.901000+00:00,-0.054945,-0.054945
2026-01-07 09:52:46.905000+00:00,-0.043956,-0.043956
2026-01-07 09:52:46.909000+00:00,0.010989,0.010989
2026-01-07 09:52:46.913000+00:00,0.021978,0.021978
2026-01-07 09:52:46.917000+00:00,0.0,0.010989
2026-01-07 09:52:46.921000+00:00,-0.032967,-0.032967
2026-01-07 09:52:46.925000+00:00,-0.021978,-0.032967
2026-01-07 09:52:46.929000+00:00,-0.010989,-0.021978
2026-01-07 09:52:46.933000+00:00,0.0,0.010989
2026-01-07 09:52:46.937000+00:00,0.010989,0.021978
2026-01-07 09:52:46.940000+00:00,-0.021978,0.0
2026-01-07 09:52:46.944000+00:00,-0.032967,0.0
2026-01-07 09:52:46.948000+00:00,-0.010989,0.021978
2026-01-07 09:52:46.952000+00:00,0.010989,0.021978
2026-01-07 09:52:46.956000+00:00,0.0,0.010989
2026-01-07 09:52:46.960000+00:00,0.0,0.010989
2026-01-07 09:52:46.964000+00:00,0.010989,0.010989
2026-01-07 09:52:46.968000+00:00,0.010989,0.0
2026-01-07 09:52:46.972000+00:00,0.021978,0.0
2026-01-07 09:52:46.976000+00:00,0.010989,-0.010989
2026-01-07 09:52:46.980000+00:00,-0.010989,-0.021978
2026-01-07 09:52:46.983000+00:00,0.0,0.0
2026-01-07 09:52:46.987000+00:00,0.054945,0.010989
2026-01-07 09:52:46.991000+00:00,0.021978,0.010989
2026-01-07 09:52:46.995000+00:00,-0.032967,-0.010989
2026-01-07 09:52:46.999000+00:00,-0.065934,-0.043956
2026-01-07 09:52:47.003000+00:00,-0.054945,-0.065934
2026-01-07 09:52:47.007000+00:00,-0.054945,-0.054945
2026-01-07 09:52:47.011000+00:00,-0.076923,-0.065934
2026-01-07 09:52:47.015000+00:00,-0.054945,-0.054945
2026-01-07 09:52:47.019000+00:00,-0.010989,-0.021978
2026-01-07 09:52:47.023000+00:00,0.021978,0.010989
2026-01-07 09:52:47.026000+00:00,0.010989,0.0
2026-01-07 09:52:47.030000+00:00,-0.043956,-0.032967
2026-01-07 09:52:47.034000+00:00,-0.087912,-0.065934
2026-01-07 09:52:47.038000+00:00,-0.043956,-0.032967
2026-01-07 09:52:47.042000+00:00,0.0,0.0
2026-01-07 09:52:47.046000+00:00,-0.010989,-0.010989
2026-01-07 09:52:47.050000+00:00,-0.021978,-0.032967
2026-01-07 09:52:47.054000+00:00,-0.021978,-0.010989
2026-01-07 09:52:47.058000+00:00,0.043956,0.076923
2026-01-07 09:52:47.062000+00:00,0.164835,0.208791
2026-01-07 09:52:47.065000+00:00,0.32967,0.373626
2026-01-07 09:52:47.069000+00:00,0.538461,0.582417
2026-01-07 09:52:47.073000+00:00,0.791208,0.780219
2026-01-07 09:52:47.077000+00:00,0.934065,0.835164
2026-01-07 09:52:47.081000+00:00,0.868131,0.681318
2026-01-07 09:52:47.085000+00:00,0.461538,0.241758
2026-01-07 09:52:47.089000+00:00,-0.175824,-0.373626
2026-01-07 09:52:47.093000+00:00,-0.703296,-0.824175
2026-01-07 09:52:47.097000+00:00,-0.857142,-0.912087
2026-01-07 09:52:47.101000+00:00,-0.76923,-0.736263
2026-01-07 09:52:47.105000+00:00,-0.582417,-0.494505
2026-01-07 09:52:47.108000+00:00,-0.417582,-0.307692
2026-01-07 09:52:47.112000+00:00,-0.318681,-0.186813
2026-01-07 09:52:47.116000+00:00,-0.263736,-0.142857
2026-01-07 09:52:47.120000+00:00,-0.186813,-0.098901
2026-01-07 09:52:47.124000+00:00,-0.142857,-0.098901
2026-01-07 09:52:47.128000+00:00,-0.120879,-0.076923
2026-01-07 09:52:47.132000+00:00,-0.098901,-0.065934
2026-01-07 09:52:47.136000+00:00,-0.076923,-0.043956
2026-01-07 09:52:47.140000+00:00,-0.065934,-0.021978
2026-01-07 09:52:47.144000+00:00,-0.043956,-0.021978
2026-01-07 09:52:47.148000+00:00,-0.010989,-0.021978
2026-01-07 09:52:47.151000+00:00,-0.043956,-0.032967
2026-01-07 09:52:47.155000+00:00,-0.032967,-0.043956
2026-01-07 09:52:47.159000+00:00,0.010989,-0.010989
2026-01-07 09:52:47.163000+00:00,-0.021978,0.010989
2026-01-07 09:52:47.167000+00:00,-0.054945,0.0
2026-01-07 09:52:47.171000+00:00,-0.043956,0.0
2026-01-07 09:52:47.175000+00:00,0.0,0.021978
2026-01-07 09:52:47.179000+00:00,0.032967,0.043956
2026-01-07 09:52:47.183000+00:00,0.021978,0.032967
2026-01-07 09:52:47.187000+00:00,0.010989,0.010989
2026-01-07 09:52:47.190000+00:00,0.0,-0.010989
2026-01-07 09:52:47.194000+00:00,-0.021978,-0.021978
2026-01-07 09:52:47.198000+00:00,0.0,0.0
2026-01-07 09:52:47.202000+00:00,0.032967,0.032967
2026-01-07 09:52:47.206000+00:00,0.021978,0.010989
2026-01-07 09:52:47.210000+00:00,0.010989,0.0
2026-01-07 09:52:47.214000+00:00,0.043956,0.032967
2026-01-07 09:52:47.218000+00:00,0.032967,0.021978
2026-01-07 09:52:47.222000+00:00,0.032967,0.032967
2026-01-07 09:52:47.226000+00:00,0.054945,0.032967
2026-01-07 09:52:47.230000+00:00,0.076923,0.054945
2026-01-07 09:52:47.233000+00:00,0.032967,0.054945
2026-01-07 09:52:47.237000+00:00,0.032967,0.065934
2026-01-07 09:52:47.241000+00:00,0.065934,0.10989
2026-01-07 09:52:47.245000+00:00,0.065934,0.098901
2026-01-07 09:52:47.249000+00:00,0.065934,0.087912
2026-01-07 09:52:47.253000+00:00,0.065934,0.065934
2026-01-07 09:52:47.257000+00:00,0.065934,0.065934
2026-01-07 09:52:47.261000+00:00,0.054945,0.032967
2026-01-07 09:52:47.265000+00:00,0.043956,0.021978
2026-01-07 09:52:47.269000+00:00,0.043956,0.043956
2026-01-07 09:52:47.273000+00:00,0.054945,0.054945
2026-01-07 09:52:47.276000+00:00,0.043956,0.043956
2026-01-07 09:52:47.280000+00:00,0.010989,0.010989
2026-01-07 09:52:47.284000+00:00,0.0,-0.010989
2026-01-07 09:52:47.288000+00:00,-0.032967,-0.032967
2026-01-07 09:52:47.292000+00:00,-0.043956,-0.054945
2026-01-07 09:52:47.296000+00:00,-0.032967,-0.032967
2026-01-07 09:52:47.300000+00:00,-0.054945,-0.032967
2026-01-07 09:52:47.304000+00:00,-0.10989,-0.065934
2026-01-07 09:52:47.308000+00:00,-0.076923,-0.065934
2026-01-07 09:52:47.312000+00:00,-0.076923,-0.076923
2026-01-07 09:52:47.315000+00:00,-0.098901,-0.098901
2026-01-07 09:52:47.319000+00:00,-0.120879,-0.131868
2026-01-07 09:52:47.323000+00:00,-0.120879,-0.131868
2026-01-07 09:52:47.327000+00:00,-0.120879,-0.131868
2026-01-07 09:52:47.331000+00:00,-0.098901,-0.10989
2026-01-07 09:52:47.335000+00:00,-0.065934,-0.076923
2026-01-07 09:52:47.339000+00:00,-0.065934,-0.076923
2026-01-07 09:52:47.343000+00:00,-0.087912,-0.087912
2026-01-07 09:52:47.347000+00:00,-0.087912,-0.087912
2026-01-07 09:52:47.351000+00:00,-0.098901,-0.087912
2026-01-07 09:52:47.355000+00:00,-0.076923,-0.076923
2026-01-07 09:52:47.358000+00:00,-0.043956,-0.054945
2026-01-07 09:52:47.362000+00:00,-0.021978,-0.032967
2026-01-07 09:52:47.366000+00:00,-0.032967,-0.043956
2026-01-07 09:52:47.370000+00:00,-0.032967,-0.043956
2026-01-07 09:52:47.374000+00:00,-0.021978,-0.043956
2026-01-07 09:52:47.378000+00:00,-0.043956,-0.043956
2026-01-07 09:52:47.382000+00:00,-0.032967,-0.021978
2026-01-07 09:52:47.386000+00:00,-0.021978,0.0
2026-01-07 09:52:47.390000+00:00,-0.032967,-0.021978
2026-01-07 09:52:47.394000+00:00,0.0,-0.010989
2026-01-07 09:52:47.398000+00:00,0.0,-0.010989
2026-01-07 09:52:47.401000+00:00,0.0,0.0
2026-01-07 09:52:47.405000+00:00,-0.021978,-0.021978
2026-01-07 09:52:47.409000+00:00,-0.065934,-0.043956
2026-01-07 09:52:47.413000+00:00,-0.032967,0.0
2026-01-07 09:52:47.417000+00:00,-0.010989,0.010989
2026-01-07 09:52:47.421000+00:00,0.0,0.010989
2026-01-07 09:52:47.425000+00:00,-0.010989,-0.010989
2026-01-07 09:52:47.429000+00:00,-0.010989,-0.021978
2026-01-07 09:52:47.433000+00:00,0.010989,-0.010989
2026-01-07 09:52:47.437000+00:00,-0.010989,-0.021978
2026-01-07 09:52:47.440000+00:00,-0.010989,-0.010989
2026-01-07 09:52:47.444000+00:00,-0.010989,-0.021978
2026-01-07 09:52:47.448000+00:00,-0.010989,-0.010989
2026-01-07 09:52:47.452000+00:00,0.0,-0.010989
2026-01-07 09:52:47.456000+00:00,0.010989,0.0
2026-01-07 09:52:47.460000+00:00,-0.043956,-0.021978
2026-01-07 09:52:47.464000+00:00,-0.032967,-0.021978
2026-01-07 09:52:47.468000+00:00,-0.021978,-0.021978
2026-01-07 09:52:47.472000+00:00,-0.010989,0.0
2026-01-07 09:52:47.476000+00:00,0.010989,0.010989
2026-01-07 09:52:47.480000+00:00,-0.010989,0.0
2026-01-07 09:52:47.483000+00:00,-0.043956,-0.021978
2026-01-07 09:52:47.487000+00:00,-0.043956,-0.043956
2026-01-07 09:52:47.491000+00:00,-0.021978,-0.032967
2026-01-07 09:52:47.495000+00:00,-0.021978,-0.032967
2026-01-07 09:52:47.499000+00:00,-0.043956,-0.043956
2026-01-07 09:52:47.503000+00:00,-0.021978,-0.010989
2026-01-07 09:52:47.507000+00:00,-0.010989,0.0
2026-01-07 09:52:47.511000+00:00,-0.032967,-0.010989
2026-01-07 09:52:47.515000+00:00,-0.021978,-0.021978
2026-01-07 09:52:47.519000+00:00,-0.010989,-0.010989
2026-01-07 09:52:47.523000+00:00,0.0,-0.010989
2026-01-07 09:52:47.526000+00:00,0.010989,-0.010989
2026-01-07 09:52:47.530000+00:00,-0.021978,-0.021978
2026-01-07 09:52:47.534000+00:00,-0.032967,-0.010989
2026-01-07 09:52:47.538000+00:00,-0.021978,0.0
2026-01-07 09:52:47.542000+00:00,-0.010989,0.0
2026-01-07 09:52:47.546000+00:00,0.010989,0.010989
2026-01-07 09:52:47.550000+00:00,-0.021978,-0.021978
2026-01-07 09:52:47.554000+00:00,-0.054945,-0.032967
2026-01-07 09:52:47.558000+00:00,-0.032967,-0.010989
2026-01-07 09:52:47.562000+00:00,-0.010989,0.010989
2026-01-07 09:52:47.565000+00:00,-0.010989,0.0
2026-01-07 09:52:47.569000+00:00,0.010989,0.010989
2026-01-07 09:52:47.573000+00:00,-0.010989,-0.010989
2026-01-07 09:52:47.577000+00:00,-0.021978,0.0
2026-01-07 09:52:47.581000+00:00,-0.032967,0.0
2026-01-07 09:52:47.585000+00:00,-0.021978,0.0
2026-01-07 09:52:47.589000+00:00,0.0,0.0
2026-01-07 09:52:47.593000+00:00,0.010989,0.0
2026-01-07 09:52:47.597000+00:00,0.021978,0.0
2026-01-07 09:52:47.601000+00:00,0.010989,0.0
2026-01-07 09:52:47.605000+00:00,0.0,-0.010989
2026-01-07 09:52:47.608000+00:00,-0.021978,-0.021978
2026-01-07 09:52:47.612000+00:00,-0.021978,-0.021978
2026-01-07 09:52:47.616000+00:00,0.010989,0.0
2026-01-07 09:52:47.620000+00:00,0.032967,0.021978
2026-01-07 09:52:47.624000+00:00,0.0,-0.010989
2026-01-07 09:52:47.628000+00:00,-0.021978,-0.032967
2026-01-07 09:52:47.632000+00:00,-0.043956,-0.054945
2026-01-07 09:52:47.636000+00:00,-0.065934,-0.065934
2026-01-07 09:52:47.640000+00:00,-0.076923,-0.076923
2026-01-07 09:52:47.644000+00:00,-0.054945,-0.043956
2026-01-07 09:52:47.648000+00:00,-0.043956,-0.021978
2026-01-07 09:52:47.651000+00:00,0.0,0.010989
2026-01-07 09:52:47.655000+00:00,0.021978,0.0
2026-01-07 09:52:47.659000+00:00,0.0,-0.010989
2026-01-07 09:52:47.663000+00:00,-0.043956,-0.021978
2026-01-07 09:52:47.667000+00:00,-0.043956,-0.032967
2026-01-07 09:52:47.671000+00:00,-0.043956,-0.043956
2026-01-07 09:52:47.675000+00:00,-0.043956,-0.054945
2026-01-07 09:52:47.679000+00:00,-0.043956,-0.043956
2026-01-07 09:52:47.683000+00:00,-0.043956,-0.010989
2026-01-07 09:52:47.687000+00:00,0.054945,0.10989
2026-01-07 09:52:47.690000+00:00,0.230769,0.285714
2026-01-07 09:52:47.694000+00:00,0.417582,0.483516
2026-01-07 09:52:47.698000+00:00,0.637362,0.637362
2026-01-07 09:52:47.702000+00:00,0.824175,0.76923
2026-01-07 09:52:47.706000+00:00,0.87912,0.747252
2026-01-07 09:52:47.710000+00:00,0.648351,0.461538
2026-01-07 09:52:47.714000+00:00,0.142857,-0.065934
2026-01-07 09:52:47.718000+00:00,-0.450549,-0.615384
2026-01-07 09:52:47.722000+00:00,-0.725274,-0.857142
2026-01-07 09:52:47.726000+00:00,-0.747252,-0.802197
2026-01-07 09:52:47.730000+00:00,-0.648351,-0.604395
2026-01-07 09:52:47.733000+00:00,-0.472527,-0.362637
2026-01-07 09:52:47.737000+00:00,-0.351648,-0.21978
2026-01-07 09:52:47.741000+00:00,-0.263736,-0.131868
2026-01-07 09:52:47.745000+00:00,-0.197802,-0.098901
2026-01-07 09:52:47.749000+00:00,-0.142857,-0.098901
2026-01-07 09:52:47.753000+00:00,-0.120879,-0.076923
2026-01-07 09:52:47.757000+00:00,-0.098901,-0.076923
2026-01-07 09:52:47.761000+00:00,-0.087912,-0.054945
2026-01-07 09:52:47.765000+00:00,-0.065934,-0.043956
2026-01-07 09:52:47.769000+00:00,-0.065934,-0.043956
2026-01-07 09:52:47.773000+00:00,-0.054945,-0.043956
2026-01-07 09:52:47.776000+00:00,-0.032967,-0.021978
2026-01-07 09:52:47.780000+00:00,-0.021978,-0.010989
2026-01-07 09:52:47.784000+00:00,-0.010989,-0.010989
2026-01-07 09:52:47.788000+00:00,0.0,-0.010989
2026-01-07 09:52:47.792000+00:00,-0.010989,-0.021978
2026-01-07 09:52:47.796000+00:00,-0.010989,-0.021978
2026-01-07 09:52:47.800000+00:00,0.010989,0.021978
2026-01-07 09:52:47.804000+00:00,0.010989,0.021978
2026-01-07 09:52:47.808000+00:00,-0.010989,0.010989
2026-01-07 09:52:47.812000+00:00,-0.021978,0.0
2026-01-07 09:52:47.815000+00:00,-0.010989,0.021978
2026-01-07 09:52:47.819000+00:00,-0.021978,0.021978
2026-01-07 09:52:47.823000+00:00,-0.021978,0.010989
2026-01-07 09:52:47.827000+00:00,-0.054945,-0.032967
2026-01-07 09:52:47.831000+00:00,0.0,0.010989
2026-01-07 09:52:47.835000+00:00,0.054945,0.076923
2026-01-07 09:52:47.839000+00:00,0.054945,0.065934
2026-01-07 09:52:47.843000+00:00,0.054945,0.054945
2026-01-07 09:52:47.847000+00:00,0.043956,0.043956
2026-01-07 09:52:47.851000+00:00,0.021978,0.043956
2026-01-07 09:52:47.855000+00:00,0.0,0.021978
2026-01-07 09:52:47.858000+00:00,0.0,0.021978
2026-01-07 09:52:47.862000+00:00,0.032967,0.043956
2026-01-07 09:52:47.866000+00:00,0.043956,0.054945
2026-01-07 09:52:47.870000+00:00,0.054945,0.054945
2026-01-07 09:52:47.874000+00:00,0.043956,0.021978
2026-01-07 09:52:47.878000+00:00,0.087912,0.065934
2026-01-07 09:52:47.882000+00:00,0.087912,0.10989
2026-01-07 09:52:47.886000+00:00,0.065934,0.098901
2026-01-07 09:52:47.890000+00:00,0.043956,0.065934
2026-01-07 09:52:47.894000+00:00,0.032967,0.043956
2026-01-07 09:52:47.898000+00:00,0.021978,0.032967
2026-01-07 09:52:47.901000+00:00,0.0,0.010989
2026-01-07 09:52:47.905000+00:00,0.010989,0.0
2026-01-07 09:52:47.909000+00:00,0.043956,0.021978
2026-01-07 09:52:47.913000+00:00,0.0,-0.010989
2026-01-07 09:52:47.917000+00:00,-0.021978,-0.010989
2026-01-07 09:52:47.921000+00:00,-0.021978,-0.021978
2026-01-07 09:52:47.925000+00:00,-0.043956,-0.021978
2026-01-07 09:52:47.929000+00:00,-0.076923,-0.054945
2026-01-07 09:52:47.933000+00:00,-0.098901,-0.076923
2026-01-07 09:52:47.937000+00:00,-0.120879,-0.098901
2026-01-07 09:52:47.940000+00:00,-0.142857,-0.142857
2026-01-07 09:52:47.944000+00:00,-0.120879,-0.120879
2026-01-07 09:52:47.948000+00:00,-0.076923,-0.087912
2026-01-07 09:52:47.952000+00:00,-0.054945,-0.065934
2026-01-07 09:52:47.956000+00:00,-0.087912,-0.076923
2026-01-07 09:52:47.960000+00:00,-0.10989,-0.098901
2026-01-07 09:52:47.964000+00:00,-0.10989,-0.10989
2026-01-07 09:52:47.968000+00:00,-0.098901,-0.10989
2026-01-07 09:52:47.972000+00:00,-0.098901,-0.098901
2026-01-07 09:52:47.976000+00:00,-0.076923,-0.087912
2026-01-07 09:52:47.980000+00:00,-0.076923,-0.087912
2026-01-07 09:52:47.983000+00:00,-0.076923,-0.076923
2026-01-07 09:52:47.987000+00:00,-0.065934,-0.087912
2026-01-07 09:52:47.991000+00:00,-0.054945,-0.054945
2026-01-07 09:52:47.995000+00:00,-0.032967,-0.021978
2026-01-07 09:52:47.999000+00:00,-0.032967,-0.032967
2026-01-07 09:52:48.003000+00:00,-0.021978,-0.032967
2026-01-07 09:52:48.007000+00:00,-0.021978,-0.032967
2026-01-07 09:52:48.011000+00:00,-0.032967,-0.032967
2026-01-07 09:52:48.015000+00:00,-0.032967,-0.021978
2026-01-07 09:52:48.019000+00:00,-0.021978,-0.010989
2026-01-07 09:52:48.023000+00:00,0.010989,0.021978
2026-01-07 09:52:48.026000+00:00,0.010989,0.021978
2026-01-07 09:52:48.030000+00:00,-0.010989,-0.010989
2026-01-07 09:52:48.034000+00:00,-0.021978,-0.021978
2026-01-07 09:52:48.038000+00:00,-0.010989,-0.021978
2026-01-07 09:52:48.042000+00:00,0.0,-0.021978
2026-01-07 09:52:48.046000+00:00,-0.010989,0.0
2026-01-07 09:52:48.050000+00:00,-0.010989,-0.010989
2026-01-07 09:52:48.054000+00:00,-0.021978,-0.010989
2026-01-07 09:52:48.058000+00:00,-0.021978,-0.010989
2026-01-07 09:52:48.062000+00:00,-0.021978,-0.032967
2026-01-07 09:52:48.065000+00:00,-0.021978,-0.032967
2026-01-07 09:52:48.069000+00:00,-0.010989,-0.021978
2026-01-07 09:52:48.073000+00:00,-0.010989,-0.032967
2026-01-07 09:52:48.077000+00:00,-0.010989,-0.032967
2026-01-07 09:52:48.081000+00:00,0.0,-0.032967
2026-01-07 09:52:48.085000+00:00,-0.021978,-0.032967
2026-01-07 09:52:48.089000+00:00,-0.032967,-0.021978
2026-01-07 09:52:48.093000+00:00,-0.032967,-0.021978
2026-01-07 09:52:48.097000+00:00,-0.043956,-0.032967
2026-01-07 09:52:48.101000+00:00,-0.021978,-0.021978
2026-01-07 09:52:48.105000+00:00,-0.010989,-0.021978
2026-01-07 09:52:48.108000+00:00,-0.032967,-0.021978
2026-01-07 09:52:48.112000+00:00,-0.032967,-0.032967
2026-01-07 09:52:48.116000+00:00,-0.010989,-0.021978
2026-01-07 09:52:48.120000+00:00,0.010989,-0.010989
2026-01-07 09:52:48.124000+00:00,0.0,-0.010989
2026-01-07 09:52:48.128000+00:00,-0.021978,-0.032967
2026-01-07 09:52:48.132000+00:00,0.010989,-0.010989
2026-01-07 09:52:48.136000+00:00,0.010989,-0.010989
2026-01-07 09:52:48.140000+00:00,0.0,0.0
2026-01-07 09:52:48.144000+00:00,-0.010989,-0.010989
2026-01-07 09:52:48.148000+00:00,-0.021978,-0.021978
2026-01-07 09:52:48.151000+00:00,-0.010989,-0.021978
2026-01-07 09:52:48.155000+00:00,-0.021978,-0.010989
2026-01-07 09:52:48.159000+00:00,-0.021978,-0.010989
2026-01-07 09:52:48.163000+00:00,-0.021978,-0.021978
2026-01-07 09:52:48.167000+00:00,-0.021978,-0.032967
2026-01-07 09:52:48.171000+00:00,-0.032967,-0.032967
2026-01-07 09:52:48.175000+00:00,-0.010989,0.0
2026-01-07 09:52:48.179000+00:00,-0.021978,0.0
2026-01-07 09:52:48.183000+00:00,-0.032967,-0.021978
2026-01-07 09:52:48.187000+00:00,-0.032967,-0.021978
2026-01-07 09:52:48.190000+00:00,-0.021978,0.0
2026-01-07 09:52:48.194000+00:00,-0.021978,0.0
2026-01-07 09:52:48.198000+00:00,-0.010989,0.0
2026-01-07 09:52:48.202000+00:00,-0.010989,0.0
2026-01-07 09:52:48.206000+00:00,-0.032967,-0.010989
2026-01-07 09:52:48.210000+00:00,-0.032967,0.0
2026-01-07 09:52:48.214000+00:00,0.0,0.032967
2026-01-07 09:52:48.218000+00:00,0.010989,0.032967
2026-01-07 09:52:48.222000+00:00,0.0,0.0
2026-01-07 09:52:48.226000+00:00,-0.010989,-0.021978
2026-01-07 09:52:48.230000+00:00,0.010989,-0.021978
2026-01-07 09:52:48.233000+00:00,0.0,-0.021978
2026-01-07 09:52:48.237000+00:00,0.021978,0.0
2026-01-07 09:52:48.241000+00:00,0.010989,0.021978
2026-01-07 09:52:48.245000+00:00,0.0,0.010989
2026-01-07 09:52:48.249000+00:00,-0.021978,-0.021978
2026-01-07 09:52:48.253000+00:00,-0.054945,-0.054945
2026-01-07 09:52:48.257000+00:00,-0.054945,-0.065934
2026-01-07 09:52:48.261000+00:00,-0.021978,-0.021978
2026-01-07 09:52:48.265000+00:00,-0.010989,0.0
2026-01-07 09:52:48.269000+00:00,-0.032967,-0.021978
2026-01-07 09:52:48.273000+00:00,-0.021978,-0.021978
2026-01-07 09:52:48.276000+00:00,-0.010989,-0.032967
2026-01-07 09:52:48.280000+00:00,-0.043956,-0.043956
2026-01-07 09:52:48.284000+00:00,-0.054945,-0.043956
2026-01-07 09:52:48.288000+00:00,-0.065934,-0.043956
2026-01-07 09:52:48.292000+00:00,-0.054945,-0.043956
2026-01-07 09:52:48.296000+00:00,-0.010989,-0.021978
2026-01-07 09:52:48.300000+00:00,0.0,0.0
2026-01-07 09:52:48.304000+00:00,-0.021978,-0.021978
2026-01-07 09:52:48.308000+00:00,-0.032967,0.0
2026-01-07 09:52:48.312000+00:00,0.010989,0.065934
2026-01-07 09:52:48.315000+00:00,0.131868,0.175824
2026-01-07 09:52:48.319000+00:00,0.307692,0.351648
2026-01-07 09:52:48.323000+00:00,0.527472,0.560439
2026-01-07 09:52:48.327000+00:00,0.758241,0.736263
2026-01-07 09:52:48.331000+00:00,0.87912,0.780219
2026-01-07 09:52:48.335000+00:00,0.835164,0.648351
2026-01-07 09:52:48.339000+00:00,0.494505,0.274725
2026-01-07 09:52:48.343000+00:00,-0.120879,-0.296703
2026-01-07 09:52:48.347000+00:00,-0.648351,-0.758241
2026-01-07 09:52:48.351000+00:00,-0.813186,-0.890109
2026-01-07 09:52:48.355000+00:00,-0.747252,-0.736263
2026-01-07 09:52:48.358000+00:00,-0.593406,-0.516483
2026-01-07 09:52:48.362000+00:00,-0.43956,-0.32967
2026-01-07 09:52:48.366000+00:00,-0.307692,-0.208791
2026-01-07 09:52:48.370000+00:00,-0.230769,-0.153846
2026-01-07 09:52:48.374000+00:00,-0.186813,-0.120879
2026-01-07 09:52:48.378000+00:00,-0.164835,-0.098901
2026-01-07 09:52:48.382000+00:00,-0.131868,-0.065934
2026-01-07 09:52:48.386000+00:00,-0.10989,-0.043956
2026-01-07 09:52:48.390000+00:00,-0.087912,-0.054945
2026-01-07 09:52:48.394000+00:00,-0.065934,-0.054945
2026-01-07 09:52:48.398000+00:00,-0.054945,-0.032967
2026-01-07 09:52:48.401000+00:00,-0.043956,-0.021978
2026-01-07 09:52:48.405000+00:00,-0.021978,-0.010989
2026-01-07 09:52:48.409000+00:00,-0.021978,-0.010989
2026-01-07 09:52:48.413000+00:00,-0.010989,-0.010989
2026-01-07 09:52:48.417000+00:00,-0.021978,-0.021978
2026-01-07 09:52:48.421000+00:00,-0.054945,-0.032967
2026-01-07 09:52:48.425000+00:00,-0.054945,-0.043956
2026-01-07 09:52:48.429000+00:00,-0.010989,0.0
2026-01-07 09:52:48.433000+00:00,0.043956,0.021978
2026-01-07 09:52:48.437000+00:00,0.021978,0.010989
2026-01-07 09:52:48.440000+00:00,0.010989,0.032967
2026-01-07 09:52:48.444000+00:00,0.010989,0.032967
2026-01-07 09:52:48.448000+00:00,0.043956,0.032967
2026-01-07 09:52:48.452000+00:00,0.032967,0.021978
2026-01-07 09:52:48.456000+00:00,0.0,0.0
2026-01-07 09:52:48.460000+00:00,0.021978,0.010989
2026-01-07 09:52:48.464000+00:00,0.032967,0.021978
2026-01-07 09:52:48.468000+00:00,0.032967,0.021978
2026-01-07 09:52:48.472000+00:00,0.010989,0.021978
2026-01-07 09:52:48.476000+00:00,0.021978,0.032967
2026-01-07 09:52:48.480000+00:00,0.032967,0.043956
2026-01-07 09:52:48.483000+00:00,0.021978,0.032967
2026-01-07 09:52:48.487000+00:00,0.010989,0.021978
2026-01-07 09:52:48.491000+00:00,0.043956,0.054945
2026-01-07 09:52:48.495000+00:00,0.054945,0.065934
2026-01-07 09:52:48.499000+00:00,0.065934,0.065934
2026-01-07 09:52:48.503000+00:00,0.098901,0.076923
2026-01-07 09:52:48.507000+00:00,0.098901,0.098901
2026-01-07 09:52:48.511000+00:00,0.087912,0.087912
2026-01-07 09:52:48.515000+00:00,0.065934,0.065934
2026-01-07 09:52:48.519000+00:00,0.043956,0.054945
2026-01-07 09:52:48.523000+00:00,0.032967,0.032967
2026-01-07 09:52:48.526000+00:00,0.054945,0.043956
2026-01-07 09:52:48.530000+00:00,0.043956,0.043956
2026-01-07 09:52:48.534000+00:00,0.032967,0.032967
2026-01-07 09:52:48.538000+00:00,0.0,0.010989
2026-01-07 09:52:48.542000+00:00,-0.054945,-0.032967
2026-01-07 09:52:48.546000+00:00,-0.043956,-0.021978
2026-01-07 09:52:48.550000+00:00,-0.043956,-0.021978
2026-01-07 09:52:48.554000+00:00,-0.065934,-0.043956
2026-01-07 09:52:48.558000+00:00,-0.098901,-0.076923
2026-01-07 09:52:48.562000+00:00,-0.10989,-0.098901
2026-01-07 09:52:48.565000+00:00,-0.10989,-0.10989
2026-01-07 09:52:48.569000+00:00,-0.098901,-0.10989
2026-01-07 09:52:48.573000+00:00,-0.10989,-0.098901
2026-01-07 09:52:48.577000+00:00,-0.120879,-0.098901
2026-01-07 09:52:48.581000+00:00,-0.120879,-0.131868
2026-01-07 09:52:48.585000+00:00,-0.10989,-0.120879
2026-01-07 09:52:48.589000+00:00,-0.098901,-0.098901
2026-01-07 09:52:48.593000+00:00,-0.10989,-0.10989
2026-01-07 09:52:48.597000+00:00,-0.098901,-0.10989
2026-01-07 09:52:48.601000+00:00,-0.087912,-0.098901
2026-01-07 09:52:48.605000+00:00,-0.098901,-0.076923
2026-01-07 09:52:48.608000+00:00,-0.087912,-0.065934
2026-01-07 09:52:48.612000+00:00,-0.076923,-0.065934
2026-01-07 09:52:48.616000+00:00,-0.076923,-0.076923
2026-01-07 09:52:48.620000+00:00,-0.032967,-0.054945
2026-01-07 09:52:48.624000+00:00,-0.021978,-0.032967
2026-01-07 09:52:48.628000+00:00,-0.021978,-0.010989
2026-01-07 09:52:48.632000+00:00,-0.021978,0.0
2026-01-07 09:52:48.636000+00:00,-0.010989,-0.010989
2026-01-07 09:52:48.640000+00:00,-0.010989,-0.010989
2026-01-07 09:52:48.644000+00:00,-0.021978,-0.032967
2026-01-07 09:52:48.648000+00:00,-0.043956,-0.054945
2026-01-07 09:52:48.651000+00:00,-0.032967,-0.043956
2026-01-07 09:52:48.655000+00:00,-0.010989,-0.021978
2026-01-07 09:52:48.659000+00:00,-0.010989,-0.010989
2026-01-07 09:52:48.663000+00:00,0.0,0.0
2026-01-07 09:52:48.667000+00:00,-0.021978,-0.010989
2026-01-07 09:52:48.671000+00:00,-0.010989,-0.021978
2026-01-07 09:52:48.675000+00:00,-0.021978,-0.021978
2026-01-07 09:52:48.679000+00:00,-0.010989,-0.021978
2026-01-07 09:52:48.683000+00:00,0.0,-0.021978
2026-01-07 09:52:48.687000+00:00,-0.010989,-0.032967
2026-01-07 09:52:48.690000+00:00,-0.032967,-0.032967
2026-01-07 09:52:48.694000+00:00,-0.043956,0.0
2026-01-07 09:52:48.698000+00:00,-0.032967,0.0
2026-01-07 09:52:48.702000+00:00,-0.010989,0.0
2026-01-07 09:52:48.706000+00:00,0.010989,0.0
2026-01-07 09:52:48.710000+00:00,0.0,-0.010989
2026-01-07 09:52:48.714000+00:00,0.0,0.0
2026-01-07 09:52:48.718000+00:00,-0.010989,0.0
2026-01-07 09:52:48.722000+00:00,-0.021978,-0.010989
2026-01-07 09:52:48.726000+00:00,-0.054945,-0.043956
2026-01-07 09:52:48.730000+00:00,-0.043956,-0.032967
2026-01-07 09:52:48.733000+00:00,-0.010989,-0.021978
2026-01-07 09:52:48.737000+00:00,0.0,0.0
2026-01-07 09:52:48.741000+00:00,-0.010989,0.0
2026-01-07 09:52:48.745000+00:00,-0.032967,-0.032967
2026-01-07 09:52:48.749000+00:00,-0.010989,-0.010989
2026-01-07 09:52:48.753000+00:00,0.0,-0.010989
2026-01-07 09:52:48.757000+00:00,-0.021978,-0.010989
2026-01-07 09:52:48.761000+00:00,0.0,0.010989
2026-01-07 09:52:48.765000+00:00,0.0,0.010989
2026-01-07 09:52:48.769000+00:00,-0.032967,-0.010989
2026-01-07 09:52:48.773000+00:00,-0.010989,-0.010989
2026-01-07 09:52:48.776000+00:00,-0.021978,-0.021978
2026-01-07 09:52:48.780000+00:00,-0.032967,-0.021978
2026-01-07 09:52:48.784000+00:00,-0.021978,-0.021978
2026-01-07 09:52:48.788000+00:00,-0.021978,0.0
2026-01-07 09:52:48.792000+00:00,-0.010989,0.0
2026-01-07 09:52:48.796000+00:00,-0.010989,-0.010989
2026-01-07 09:52:48.800000+00:00,0.0,-0.010989
2026-01-07 09:52:48.804000+00:00,0.0,-0.010989
2026-01-07 09:52:48.808000+00:00,-0.010989,-0.010989
2026-01-07 09:52:48.812000+00:00,-0.010989,-0.010989
2026-01-07 09:52:48.815000+00:00,-0.021978,-0.010989
2026-01-07 09:52:48.819000+00:00,-0.032967,-0.010989
2026-01-07 09:52:48.823000+00:00,-0.032967,0.0
2026-01-07 09:52:48.827000+00:00,-0.010989,0.0
2026-01-07 09:52:48.831000+00:00,-0.021978,0.0
2026-01-07 09:52:48.835000+00:00,-0.021978,0.0
2026-01-07 09:52:48.839000+00:00,0.0,0.0
2026-01-07 09:52:48.843000+00:00,0.0,0.0
2026-01-07 09:52:48.847000+00:00,0.010989,-0.010989
2026-01-07 09:52:48.851000+00:00,0.021978,0.0
2026-01-07 09:52:48.855000+00:00,0.021978,0.0
2026-01-07 09:52:48.858000+00:00,-0.010989,-0.010989
2026-01-07 09:52:48.862000+00:00,-0.021978,-0.010989
2026-01-07 09:52:48.866000+00:00,0.010989,-0.010989
2026-01-07 09:52:48.870000+00:00,0.021978,0.010989
2026-01-07 09:52:48.874000+00:00,0.0,-0.010989
2026-01-07 09:52:48.878000+00:00,-0.010989,-0.021978
2026-01-07 09:52:48.882000+00:00,-0.010989,-0.043956
2026-01-07 09:52:48.886000+00:00,-0.032967,-0.065934
2026-01-07 09:52:48.890000+00:00,-0.032967,-0.043956
2026-01-07 09:52:48.894000+00:00,-0.021978,-0.010989
2026-01-07 09:52:48.898000+00:00,-0.010989,0.0
2026-01-07 09:52:48.901000+00:00,-0.032967,-0.021978
2026-01-07 09:52:48.905000+00:00,-0.043956,-0.054945
2026-01-07 09:52:48.909000+00:00,-0.032967,-0.032967
2026-01-07 09:52:48.913000+00:00,-0.032967,-0.032967
2026-01-07 09:52:48.917000+00:00,-0.032967,-0.043956
2026-01-07 09:52:48.921000+00:00,-0.043956,-0.032967
2026-01-07 09:52:48.925000+00:00,-0.010989,0.0
2026-01-07 09:52:48.929000+00:00,-0.010989,0.0
2026-01-07 09:52:48.933000+00:00,-0.043956,-0.021978
2026-01-07 09:52:48.937000+00:00,-0.021978,0.021978
2026-01-07 09:52:48.940000+00:00,0.087912,0.153846
2026-01-07 09:52:48.944000+00:00,0.274725,0.32967
2026-01-07 09:52:48.948000+00:00,0.505494,0.54945
2026-01-07 09:52:48.952000+00:00,0.76923,0.76923
2026-01-07 09:52:48.956000+00:00,0.967032,0.87912
2026-01-07 09:52:48.960000+00:00,1.010988,0.857142
2026-01-07 09:52:48.964000+00:00,0.747252,0.538461
2026-01-07 09:52:48.968000+00:00,0.142857,-0.076923
2026-01-07 09:52:48.972000+00:00,-0.538461,-0.670329
2026-01-07 09:52:48.976000+00:00,-0.912087,-0.98901
2026-01-07 09:52:48.980000+00:00,-0.912087,-0.934065
2026-01-07 09:52:48.983000+00:00,-0.747252,-0.703296
2026-01-07 09:52:48.987000+00:00,-0.571428,-0.472527
2026-01-07 09:52:48.991000+00:00,-0.417582,-0.296703
2026-01-07 09:52:48.995000+00:00,-0.318681,-0.197802
2026-01-07 09:52:48.999000+00:00,-0.230769,-0.131868
2026-01-07 09:52:49.003000+00:00,-0.197802,-0.120879
2026-01-07 09:52:49.007000+00:00,-0.142857,-0.087912
2026-01-07 09:52:49.011000+00:00,-0.098901,-0.065934
2026-01-07 09:52:49.015000+00:00,-0.076923,-0.043956
2026-01-07 09:52:49.019000+00:00,-0.065934,-0.032967
2026-01-07 09:52:49.023000+00:00,-0.076923,-0.043956
2026-01-07 09:52:49.026000+00:00,-0.054945,-0.032967
2026-01-07 09:52:49.030000+00:00,-0.032967,-0.021978
2026-01-07 09:52:49.034000+00:00,-0.010989,-0.010989
2026-01-07 09:52:49.038000+00:00,-0.021978,0.010989
2026-01-07 09:52:49.042000+00:00,-0.032967,0.0
2026-01-07 09:52:49.046000+00:00,-0.032967,0.010989
2026-01-07 09:52:49.050000+00:00,-0.021978,0.0
2026-01-07 09:52:49.054000+00:00,0.0,0.0
2026-01-07 09:52:49.058000+00:00,0.010989,0.0
2026-01-07 09:52:49.062000+00:00,0.010989,0.010989
2026-01-07 09:52:49.065000+00:00,-0.021978,-0.010989
2026-01-07 09:52:49.069000+00:00,-0.043956,-0.032967
2026-01-07 09:52:49.073000+00:00,-0.021978,-0.021978
2026-01-07 09:52:49.077000+00:00,0.032967,0.021978
2026-01-07 09:52:49.081000+00:00,0.065934,0.054945
2026-01-07 09:52:49.085000+00:00,0.054945,0.065934
2026-01-07 09:52:49.089000+00:00,0.043956,0.054945
2026-01-07 09:52:49.093000+00:00,0.010989,0.021978
2026-01-07 09:52:49.097000+00:00,0.010989,0.010989
2026-01-07 09:52:49.101000+00:00,0.043956,0.021978
2026-01-07 09:52:49.105000+00:00,0.043956,0.021978
2026-01-07 09:52:49.108000+00:00,0.021978,0.010989
2026-01-07 09:52:49.112000+00:00,0.054945,0.054945
2026-01-07 09:52:49.116000+00:00,0.076923,0.076923
2026-01-07 09:52:49.120000+00:00,0.065934,0.065934
2026-01-07 09:52:49.124000+00:00,0.065934,0.065934
2026-01-07 09:52:49.128000+00:00,0.087912,0.098901
2026-01-07 09:52:49.132000+00:00,0.087912,0.098901
2026-01-07 09:52:49.136000+00:00,0.10989,0.120879
2026-01-07 09:52:49.140000+00:00,0.131868,0.10989
2026-01-07 09:52:49.144000+00:00,0.087912,0.076923
2026-01-07 09:52:49.148000+00:00,0.043956,0.054945
2026-01-07 09:52:49.151000+00:00,0.021978,0.054945
2026-01-07 09:52:49.155000+00:00,0.021978,0.043956
2026-01-07 09:52:49.159000+00:00,0.021978,0.021978
2026-01-07 09:52:49.163000+00:00,-0.010989,-0.010989
2026-01-07 09:52:49.167000+00:00,-0.043956,-0.032967
2026-01-07 09:52:49.171000+00:00,-0.054945,-0.032967
2026-01-07 09:52:49.175000+00:00,-0.032967,-0.021978
2026-01-07 09:52:49.179000+00:00,-0.032967,-0.054945
2026-01-07 09:52:49.183000+00:00,-0.065934,-0.065934
2026-01-07 09:52:49.187000+00:00,-0.098901,-0.076923
2026-01-07 09:52:49.190000+00:00,-0.131868,-0.10989
2026-01-07 09:52:49.194000+00:00,-0.142857,-0.131868
2026-01-07 09:52:49.198000+00:00,-0.164835,-0.164835
2026-01-07 09:52:49.202000+00:00,-0.153846,-0.153846
2026-01-07 09:52:49.206000+00:00,-0.131868,-0.131868
2026-01-07 09:52:49.210000+00:00,-0.098901,-0.10989
2026-01-07 09:52:49.214000+00:00,-0.065934,-0.087912
2026-01-07 09:52:49.218000+00:00,-0.076923,-0.087912
2026-01-07 09:52:49.222000+00:00,-0.087912,-0.098901
2026-01-07 09:52:49.226000+00:00,-0.098901,-0.098901
2026-01-07 09:52:49.230000+00:00,-0.098901,-0.120879
2026-01-07 09:52:49.233000+00:00,-0.076923,-0.10989
2026-01-07 09:52:49.237000+00:00,-0.043956,-0.065934
2026-01-07 09:52:49.241000+00:00,-0.043956,-0.043956
2026-01-07 09:52:49.245000+00:00,-0.043956,-0.032967
2026-01-07 09:52:49.249000+00:00,-0.043956,-0.021978
2026-01-07 09:52:49.253000+00:00,-0.043956,-0.043956
2026-01-07 09:52:49.257000+00:00,-0.010989,-0.021978
2026-01-07 09:52:49.261000+00:00,-0.032967,-0.032967
2026-01-07 09:52:49.265000+00:00,-0.032967,-0.032967
2026-01-07 09:52:49.269000+00:00,-0.010989,-0.032967
2026-01-07 09:52:49.273000+00:00,-0.021978,-0.021978
2026-01-07 09:52:49.276000+00:00,-0.021978,-0.010989
2026-01-07 09:52:49.280000+00:00,0.010989,0.010989
2026-01-07 09:52:49.284000+00:00,0.0,0.010989
2026-01-07 09:52:49.288000+00:00,0.0,0.010989
2026-01-07 09:52:49.292000+00:00,-0.032967,-0.010989
2026-01-07 09:52:49.296000+00:00,-0.054945,-0.043956
2026-01-07 09:52:49.300000+00:00,-0.021978,-0.032967
2026-01-07 09:52:49.304000+00:00,0.021978,0.010989
2026-01-07 09:52:49.308000+00:00,0.054945,0.032967
2026-01-07 09:52:49.312000+00:00,0.021978,0.010989
2026-01-07 09:52:49.315000+00:00,-0.010989,-0.010989
2026-01-07 09:52:49.319000+00:00,-0.032967,-0.010989
2026-01-07 09:52:49.323000+00:00,-0.032967,-0.021978
2026-01-07 09:52:49.327000+00:00,-0.043956,-0.043956
2026-01-07 09:52:49.331000+00:00,-0.021978,-0.043956
2026-01-07 09:52:49.335000+00:00,0.0,-0.032967
2026-01-07 09:52:49.339000+00:00,-0.021978,-0.032967
2026-01-07 09:52:49.343000+00:00,-0.021978,-0.010989
2026-01-07 09:52:49.347000+00:00,-0.032967,-0.010989
2026-01-07 09:52:49.351000+00:00,-0.043956,-0.021978
2026-01-07 09:52:49.355000+00:00,-0.043956,-0.032967
2026-01-07 09:52:49.358000+00:00,-0.021978,-0.021978
2026-01-07 09:52:49.362000+00:00,0.021978,-0.010989
2026-01-07 09:52:49.366000+00:00,0.010989,-0.010989
2026-01-07 09:52:49.370000+00:00,0.0,0.010989
2026-01-07 09:52:49.374000+00:00,-0.010989,0.010989
2026-01-07 09:52:49.378000+00:00,-0.032967,-0.010989
2026-01-07 09:52:49.382000+00:00,-0.032967,-0.021978
2026-01-07 09:52:49.386000+00:00,-0.043956,-0.043956
2026-01-07 09:52:49.390000+00:00,-0.021978,-0.021978
2026-01-07 09:52:49.394000+00:00,-0.010989,-0.021978
2026-01-07 09:52:49.398000+00:00,0.0,-0.010989
2026-01-07 09:52:49.401000+00:00,0.0,-0.021978
2026-01-07 09:52:49.405000+00:00,-0.032967,-0.021978
2026-01-07 09:52:49.409000+00:00,-0.032967,-0.021978
2026-01-07 09:52:49.413000+00:00,-0.021978,-0.021978
2026-01-07 09:52:49.417000+00:00,-0.021978,-0.043956
2026-01-07 09:52:49.421000+00:00,-0.043956,-0.032967
2026-01-07 09:52:49.425000+00:00,-0.021978,-0.021978
2026-01-07 09:52:49.429000+00:00,0.010989,0.010989
2026-01-07 09:52:49.433000+00:00,0.032967,0.043956
2026-01-07 09:52:49.437000+00:00,0.010989,0.021978
2026-01-07 09:52:49.440000+00:00,-0.010989,-0.010989
2026-01-07 09:52:49.444000+00:00,-0.010989,-0.010989
2026-01-07 09:52:49.448000+00:00,-0.010989,0.0
2026-01-07 09:52:49.452000+00:00,-0.010989,0.0
2026-01-07 09:52:49.456000+00:00,-0.021978,-0.010989
2026-01-07 09:52:49.460000+00:00,-0.032967,-0.021978
2026-01-07 09:52:49.464000+00:00,-0.032967,-0.032967
2026-01-07 09:52:49.468000+00:00,-0.032967,-0.043956
2026-01-07 09:52:49.472000+00:00,-0.010989,-0.021978
2026-01-07 09:52:49.476000+00:00,0.021978,0.010989
2026-01-07 09:52:49.480000+00:00,0.065934,0.054945
2026-01-07 09:52:49.483000+00:00,0.054945,0.021978
2026-01-07 09:52:49.487000+00:00,0.032967,0.0
2026-01-07 09:52:49.491000+00:00,-0.010989,-0.032967
2026-01-07 09:52:49.495000+00:00,-0.021978,-0.021978
2026-01-07 09:52:49.499000+00:00,-0.032967,-0.021978
2026-01-07 09:52:49.503000+00:00,0.010989,0.010989
2026-01-07 09:52:49.507000+00:00,0.0,0.0
2026-01-07 09:52:49.511000+00:00,-0.032967,-0.021978
2026-01-07 09:52:49.515000+00:00,-0.032967,-0.032967
2026-01-07 09:52:49.519000+00:00,-0.032967,-0.043956
2026-01-07 09:52:49.523000+00:00,-0.043956,-0.054945
2026-01-07 09:52:49.526000+00:00,-0.054945,-0.043956
2026-01-07 09:52:49.530000+00:00,-0.032967,-0.021978
2026-01-07 09:52:49.534000+00:00,-0.032967,-0.010989
2026-01-07 09:52:49.538000+00:00,-0.032967,-0.021978
2026-01-07 09:52:49.542000+00:00,-0.010989,-0.010989
2026-01-07 09:52:49.546000+00:00,-0.010989,0.0
2026-01-07 09:52:49.550000+00:00,-0.010989,0.0
2026-01-07 09:52:49.554000+00:00,-0.054945,-0.021978
2026-01-07 09:52:49.558000+00:00,-0.076923,-0.032967
2026-01-07 09:52:49.562000+00:00,0.0,0.010989
2026-01-07 09:52:49.565000+00:00,0.153846,0.197802
2026-01-07 09:52:49.569000+00:00,0.32967,0.395604
2026-01-07 09:52:49.573000+00:00,0.54945,0.593406
2026-01-07 09:52:49.577000+00:00,0.824175,0.813186
2026-01-07 09:52:49.581000+00:00,1.010988,0.934065
2026-01-07 09:52:49.585000+00:00,0.98901,0.835164
2026-01-07 09:52:49.589000+00:00,0.604395,0.406593
2026-01-07 09:52:49.593000+00:00,-0.043956,-0.252747
2026-01-07 09:52:49.597000+00:00,-0.681318,-0.802197
2026-01-07 09:52:49.601000+00:00,-0.923076,-0.999999
2026-01-07 09:52:49.605000+00:00,-0.868131,-0.87912
2026-01-07 09:52:49.608000+00:00,-0.65934,-0.593406
2026-01-07 09:52:49.612000+00:00,-0.494505,-0.362637
2026-01-07 09:52:49.616000+00:00,-0.373626,-0.241758
2026-01-07 09:52:49.620000+00:00,-0.296703,-0.186813
2026-01-07 09:52:49.624000+00:00,-0.241758,-0.131868
2026-01-07 09:52:49.628000+00:00,-0.175824,-0.076923
2026-01-07 09:52:49.632000+00:00,-0.120879,-0.054945
2026-01-07 09:52:49.636000+00:00,-0.098901,-0.043956
2026-01-07 09:52:49.640000+00:00,-0.087912,-0.032967
2026-01-07 09:52:49.644000+00:00,-0.054945,-0.021978
2026-01-07 09:52:49.648000+00:00,-0.043956,-0.021978
2026-01-07 09:52:49.651000+00:00,-0.032967,-0.010989
2026-01-07 09:52:49.655000+00:00,-0.043956,-0.010989
2026-01-07 09:52:49.659000+00:00,-0.032967,-0.010989
2026-01-07 09:52:49.663000+00:00,-0.043956,-0.021978
2026-01-07 09:52:49.667000+00:00,-0.043956,-0.021978
2026-01-07 09:52:49.671000+00:00,-0.021978,-0.010989
2026-01-07 09:52:49.675000+00:00,-0.010989,-0.010989
2026-01-07 09:52:49.679000+00:00,0.010989,0.010989
2026-01-07 09:52:49.683000+00:00,0.010989,0.010989
2026-01-07 09:52:49.687000+00:00,0.010989,0.0
2026-01-07 09:52:49.690000+00:00,0.010989,0.010989
2026-01-07 09:52:49.694000+00:00,-0.010989,0.010989
2026-01-07 09:52:49.698000+00:00,-0.010989,0.021978
2026-01-07 09:52:49.702000+00:00,0.010989,0.021978
2026-01-07 09:52:49.706000+00:00,0.010989,0.010989
2026-01-07 09:52:49.710000+00:00,0.010989,0.010989
2026-01-07 09:52:49.714000+00:00,0.021978,0.010989
2026-01-07 09:52:49.718000+00:00,0.043956,0.043956
2026-01-07 09:52:49.722000+00:00,0.032967,0.043956
2026-01-07 09:52:49.726000+00:00,0.010989,0.043956
2026-01-07 09:52:49.730000+00:00,0.010989,0.032967
2026-01-07 09:52:49.733000+00:00,0.054945,0.054945
2026-01-07 09:52:49.737000+00:00,0.054945,0.065934
2026-01-07 09:52:49.741000+00:00,0.076923,0.076923
2026-01-07 09:52:49.745000+00:00,0.065934,0.076923
2026-01-07 09:52:49.749000+00:00,0.054945,0.065934
2026-01-07 09:52:49.753000+00:00,0.087912,0.098901
2026-01-07 09:52:49.757000+00:00,0.098901,0.098901
2026-01-07 09:52:49.761000+00:00,0.098901,0.098901
2026-01-07 09:52:49.765000+00:00,0.065934,0.087912
2026-01-07 09:52:49.769000+00:00,0.065934,0.076923
2026-01-07 09:52:49.773000+00:00,0.054945,0.065934
2026-01-07 09:52:49.776000+00:00,0.054945,0.054945
2026-01-07 09:52:49.780000+00:00,0.043956,0.021978
2026-01-07 09:52:49.784000+00:00,0.0,-0.010989
2026-01-07 09:52:49.788000+00:00,-0.021978,-0.010989
2026-01-07 09:52:49.792000+00:00,-0.010989,0.0
2026-01-07 09:52:49.796000+00:00,-0.021978,0.0
2026-01-07 09:52:49.800000+00:00,-0.032967,-0.021978
2026-01-07 09:52:49.804000+00:00,-0.065934,-0.065934
2026-01-07 09:52:49.808000+00:00,-0.10989,-0.10989
2026-01-07 09:52:49.812000+00:00,-0.120879,-0.10989
2026-01-07 09:52:49.815000+00:00,-0.131868,-0.120879
2026-01-07 09:52:49.819000+00:00,-0.098901,-0.076923
2026-01-07 09:52:49.823000+00:00,-0.087912,-0.087912
2026-01-07 09:52:49.827000+00:00,-0.098901,-0.10989
2026-01-07 09:52:49.831000+00:00,-0.120879,-0.10989
2026-01-07 09:52:49.835000+00:00,-0.131868,-0.10989
2026-01-07 09:52:49.839000+00:00,-0.120879,-0.120879
2026-01-07 09:52:49.843000+00:00,-0.120879,-0.153846
2026-01-07 09:52:49.847000+00:00,-0.098901,-0.10989
2026-01-07 09:52:49.851000+00:00,-0.087912,-0.087912
2026-01-07 09:52:49.855000+00:00,-0.065934,-0.065934
2026-01-07 09:52:49.858000+00:00,-0.065934,-0.076923
2026-01-07 09:52:49.862000+00:00,-0.043956,-0.054945
2026-01-07 09:52:49.866000+00:00,-0.065934,-0.065934
2026-01-07 09:52:49.870000+00:00,-0.065934,-0.076923
2026-01-07 09:52:49.874000+00:00,-0.043956,-0.032967
2026-01-07 09:52:49.878000+00:00,-0.010989,-0.010989
2026-01-07 09:52:49.882000+00:00,-0.010989,-0.032967
2026-01-07 09:52:49.886000+00:00,-0.032967,-0.032967
2026-01-07 09:52:49.890000+00:00,-0.032967,-0.032967
2026-01-07 09:52:49.894000+00:00,-0.032967,-0.010989
2026-01-07 09:52:49.898000+00:00,-0.032967,0.0
2026-01-07 09:52:49.901000+00:00,-0.010989,0.010989
2026-01-07 09:52:49.905000+00:00,0.0,0.0
2026-01-07 09:52:49.909000+00:00,0.0,-0.010989
2026-01-07 09:52:49.913000+00:00,-0.010989,0.0
2026-01-07 09:52:49.917000+00:00,0.0,0.0
2026-01-07 09:52:49.921000+00:00,-0.021978,-0.032967
2026-01-07 09:52:49.925000+00:00,-0.021978,-0.032967
2026-01-07 09:52:49.929000+00:00,-0.010989,-0.021978
2026-01-07 09:52:49.933000+00:00,0.0,0.0
2026-01-07 09:52:49.937000+00:00,0.0,0.0
2026-01-07 09:52:49.940000+00:00,0.0,-0.010989
2026-01-07 09:52:49.944000+00:00,-0.032967,-0.021978
2026-01-07 09:52:49.948000+00:00,-0.021978,-0.032967
2026-01-07 09:52:49.952000+00:00,-0.010989,-0.010989
2026-01-07 09:52:49.956000+00:00,0.0,0.0
2026-01-07 09:52:49.960000+00:00,0.0,-0.010989
2026-01-07 09:52:49.964000+00:00,0.0,0.0
2026-01-07 09:52:49.968000+00:00,-0.010989,0.0
2026-01-07 09:52:49.972000+00:00,-0.043956,-0.021978
2026-01-07 09:52:49.976000+00:00,-0.043956,-0.043956
2026-01-07 09:52:49.980000+00:00,-0.032967,-0.043956
2026-01-07 09:52:49.983000+00:00,-0.010989,-0.010989
2026-01-07 09:52:49.987000+00:00,0.021978,0.010989
2026-01-07 09:52:49.991000+00:00,0.0,-0.021978
2026-01-07 09:52:49.995000+00:00,0.010989,-0.021978
2026-01-07 09:52:49.999000+00:00,-0.010989,-0.032967
2026-01-07 09:52:50.003000+00:00,-0.043956,-0.032967
2026-01-07 09:52:50.007000+00:00,-0.043956,-0.032967
2026-01-07 09:52:50.011000+00:00,-0.021978,0.0
2026-01-07 09:52:50.015000+00:00,-0.010989,0.010989
2026-01-07 09:52:50.019000+00:00,0.0,-0.010989
2026-01-07 09:52:50.023000+00:00,-0.032967,-0.032967
2026-01-07 09:52:50.026000+00:00,-0.043956,-0.043956
2026-01-07 09:52:50.030000+00:00,-0.043956,-0.021978
2026-01-07 09:52:50.034000+00:00,-0.021978,-0.010989
2026-01-07 09:52:50.038000+00:00,0.0,0.0
2026-01-07 09:52:50.042000+00:00,0.010989,0.0
2026-01-07 09:52:50.046000+00:00,-0.021978,-0.032967
2026-01-07 09:52:50.050000+00:00,-0.010989,-0.021978
2026-01-07 09:52:50.054000+00:00,-0.010989,0.0
2026-01-07 09:52:50.058000+00:00,0.0,0.0
2026-01-07 09:52:50.062000+00:00,0.021978,0.0
2026-01-07 09:52:50.065000+00:00,0.010989,-0.010989
2026-01-07 09:52:50.069000+00:00,-0.010989,-0.010989
2026-01-07 09:52:50.073000+00:00,-0.032967,-0.021978
2026-01-07 09:52:50.077000+00:00,-0.021978,-0.010989
2026-01-07 09:52:50.081000+00:00,-0.065934,-0.021978
2026-01-07 09:52:50.085000+00:00,-0.076923,-0.043956
2026-01-07 09:52:50.089000+00:00,-0.032967,-0.010989
2026-01-07 09:52:50.093000+00:00,0.021978,0.032967
2026-01-07 09:52:50.097000+00:00,0.043956,0.043956
2026-01-07 09:52:50.101000+00:00,0.043956,0.021978
2026-01-07 09:52:50.105000+00:00,0.021978,0.0
2026-01-07 09:52:50.108000+00:00,-0.010989,-0.032967
2026-01-07 09:52:50.112000+00:00,-0.010989,-0.021978
2026-01-07 09:52:50.116000+00:00,0.0,-0.021978
2026-01-07 09:52:50.120000+00:00,0.021978,0.0
2026-01-07 09:52:50.124000+00:00,0.021978,0.010989
2026-01-07 09:52:50.128000+00:00,0.010989,0.0
2026-01-07 09:52:50.132000+00:00,-0.010989,-0.010989
2026-01-07 09:52:50.136000+00:00,-0.021978,-0.032967
2026-01-07 09:52:50.140000+00:00,-0.032967,-0.043956
2026-01-07 09:52:50.144000+00:00,-0.043956,-0.043956
2026-01-07 09:52:50.148000+00:00,-0.043956,-0.032967
2026-01-07 09:52:50.151000+00:00,-0.065934,-0.043956
2026-01-07 09:52:50.155000+00:00,-0.065934,-0.032967
2026-01-07 09:52:50.159000+00:00,-0.054945,-0.032967
2026-01-07 09:52:50.163000+00:00,-0.043956,-0.032967
2026-01-07 09:52:50.167000+00:00,-0.032967,-0.043956
2026-01-07 09:52:50.171000+00:00,-0.021978,-0.021978
2026-01-07 09:52:50.175000+00:00,0.021978,0.0
2026-01-07 09:52:50.179000+00:00,-0.010989,-0.021978
2026-01-07 09:52:50.183000+00:00,-0.043956,-0.021978
2026-01-07 09:52:50.187000+00:00,-0.065934,-0.010989
2026-01-07 09:52:50.190000+00:00,-0.021978,0.032967
2026-01-07 09:52:50.194000+00:00,0.10989,0.153846
2026-01-07 09:52:50.198000+00:00,0.285714,0.340659
2026-01-07 09:52:50.202000+00:00,0.527472,0.560439
2026-01-07 09:52:50.206000+00:00,0.780219,0.76923
2026-01-07 09:52:50.210000+00:00,0.956043,0.857142
2026-01-07 09:52:50.214000+00:00,0.967032,0.780219
2026-01-07 09:52:50.218000+00:00,0.648351,0.395604
2026-01-07 09:52:50.222000+00:00,0.032967,-0.186813
2026-01-07 09:52:50.226000+00:00,-0.571428,-0.692307
2026-01-07 09:52:50.230000+00:00,-0.868131,-0.912087
2026-01-07 09:52:50.233000+00:00,-0.846153,-0.824175
2026-01-07 09:52:50.237000+00:00,-0.692307,-0.615384
2026-01-07 09:52:50.241000+00:00,-0.527472,-0.406593
2026-01-07 09:52:50.245000+00:00,-0.373626,-0.241758
2026-01-07 09:52:50.249000+00:00,-0.263736,-0.153846
2026-01-07 09:52:50.253000+00:00,-0.197802,-0.10989
2026-01-07 09:52:50.257000+00:00,-0.175824,-0.098901
2026-01-07 09:52:50.261000+00:00,-0.153846,-0.076923
2026-01-07 09:52:50.265000+00:00,-0.098901,-0.054945
2026-01-07 09:52:50.269000+00:00,-0.065934,-0.043956
2026-01-07 09:52:50.273000+00:00,-0.054945,-0.043956
2026-01-07 09:52:50.276000+00:00,-0.054945,-0.043956
2026-01-07 09:52:50.280000+00:00,-0.043956,-0.032967
2026-01-07 09:52:50.284000+00:00,-0.021978,-0.010989
2026-01-07 09:52:50.288000+00:00,-0.054945,-0.010989
2026-01-07 09:52:50.292000+00:00,-0.054945,-0.032967
2026-01-07 09:52:50.296000+00:00,-0.010989,0.0
2026-01-07 09:52:50.300000+00:00,0.010989,0.021978
2026-01-07 09:52:50.304000+00:00,0.010989,0.043956
2026-01-07 09:52:50.308000+00:00,0.021978,0.032967
2026-01-07 09:52:50.312000+00:00,0.010989,0.0
2026-01-07 09:52:50.315000+00:00,0.0,-0.010989
2026-01-07 09:52:50.319000+00:00,0.0,0.021978
2026-01-07 09:52:50.323000+00:00,0.0,0.032967
2026-01-07 09:52:50.327000+00:00,0.0,0.021978
2026-01-07 09:52:50.331000+00:00,0.010989,0.0
2026-01-07 09:52:50.335000+00:00,0.0,-0.010989
2026-01-07 09:52:50.339000+00:00,0.010989,0.0
2026-01-07 09:52:50.343000+00:00,0.010989,0.010989
2026-01-07 09:52:50.347000+00:00,0.021978,0.021978
2026-01-07 09:52:50.351000+00:00,0.032967,0.043956
2026-01-07 09:52:50.355000+00:00,0.043956,0.054945
2026-01-07 09:52:50.358000+00:00,0.043956,0.054945
2026-01-07 09:52:50.362000+00:00,0.054945,0.054945
2026-01-07 09:52:50.366000+00:00,0.054945,0.054945
2026-01-07 09:52:50.370000+00:00,0.043956,0.065934
2026-01-07 09:52:50.374000+00:00,0.043956,0.076923
2026-01-07 09:52:50.378000+00:00,0.054945,0.065934
2026-01-07 09:52:50.382000+00:00,0.054945,0.065934
2026-01-07 09:52:50.386000+00:00,0.065934,0.065934
2026-01-07 09:52:50.390000+00:00,0.054945,0.043956
2026-01-07 09:52:50.394000+00:00,0.043956,0.043956
2026-01-07 09:52:50.398000+00:00,0.087912,0.098901
2026-01-07 09:52:50.401000+00:00,0.087912,0.10989
2026-01-07 09:52:50.405000+00:00,0.065934,0.076923
2026-01-07 09:52:50.409000+00:00,0.032967,0.043956
2026-01-07 09:52:50.413000+00:00,0.021978,0.010989
2026-01-07 09:52:50.417000+00:00,-0.010989,0.010989
2026-01-07 09:52:50.421000+00:00,-0.010989,0.010989
2026-01-07 09:52:50.425000+00:00,-0.010989,-0.010989
2026-01-07 09:52:50.429000+00:00,-0.010989,-0.021978
2026-01-07 09:52:50.433000+00:00,-0.054945,-0.054945
2026-01-07 09:52:50.437000+00:00,-0.10989,-0.065934
2026-01-07 09:52:50.440000+00:00,-0.131868,-0.087912
2026-01-07 09:52:50.444000+00:00,-0.120879,-0.098901
2026-01-07 09:52:50.448000+00:00,-0.10989,-0.098901
2026-01-07 09:52:50.452000+00:00,-0.098901,-0.098901
2026-01-07 09:52:50.456000+00:00,-0.10989,-0.10989
2026-01-07 09:52:50.460000+00:00,-0.120879,-0.098901
2026-01-07 09:52:50.464000+00:00,-0.10989,-0.10989
2026-01-07 09:52:50.468000+00:00,-0.120879,-0.120879
2026-01-07 09:52:50.472000+00:00,-0.098901,-0.120879
2026-01-07 09:52:50.476000+00:00,-0.076923,-0.087912
2026-01-07 09:52:50.480000+00:00,-0.054945,-0.065934
2026-01-07 09:52:50.483000+00:00,-0.065934,-0.065934
2026-01-07 09:52:50.487000+00:00,-0.065934,-0.087912
2026-01-07 09:52:50.491000+00:00,-0.054945,-0.076923
2026-01-07 09:52:50.495000+00:00,-0.054945,-0.054945
2026-01-07 09:52:50.499000+00:00,-0.032967,-0.043956
2026-01-07 09:52:50.503000+00:00,-0.032967,-0.043956
2026-01-07 09:52:50.507000+00:00,-0.010989,0.0
2026-01-07 09:52:50.511000+00:00,0.0,0.0
2026-01-07 09:52:50.515000+00:00,0.0,0.0
2026-01-07 09:52:50.519000+00:00,0.0,-0.010989
2026-01-07 09:52:50.523000+00:00,-0.021978,-0.010989
2026-01-07 09:52:50.526000+00:00,-0.021978,-0.010989
2026-01-07 09:52:50.530000+00:00,-0.032967,-0.010989
2026-01-07 09:52:50.534000+00:00,-0.021978,-0.021978
2026-01-07 09:52:50.538000+00:00,-0.043956,-0.032967
2026-01-07 09:52:50.542000+00:00,-0.010989,-0.032967
2026-01-07 09:52:50.546000+00:00,0.021978,0.010989
2026-01-07 09:52:50.550000+00:00,0.0,0.021978
2026-01-07 09:52:50.554000+00:00,-0.010989,0.010989
2026-01-07 09:52:50.558000+00:00,-0.021978,-0.010989
2026-01-07 09:52:50.562000+00:00,-0.010989,-0.010989
2026-01-07 09:52:50.565000+00:00,-0.021978,-0.010989
2026-01-07 09:52:50.569000+00:00,-0.032967,-0.010989
2026-01-07 09:52:50.573000+00:00,-0.010989,-0.010989
2026-01-07 09:52:50.577000+00:00,-0.010989,-0.010989
2026-01-07 09:52:50.581000+00:00,-0.010989,-0.021978
2026-01-07 09:52:50.585000+00:00,-0.010989,-0.021978
2026-01-07 09:52:50.589000+00:00,0.0,-0.010989
2026-01-07 09:52:50.593000+00:00,0.0,0.0
2026-01-07 09:52:50.597000+00:00,0.0,0.010989
2026-01-07 09:52:50.601000+00:00,0.0,-0.010989
2026-01-07 09:52:50.605000+00:00,-0.021978,-0.021978
2026-01-07 09:52:50.608000+00:00,-0.032967,-0.032967
2026-01-07 09:52:50.612000+00:00,-0.043956,-0.043956
2026-01-07 09:52:50.616000+00:00,-0.065934,-0.043956
2026-01-07 09:52:50.620000+00:00,-0.065934,-0.032967
2026-01-07 09:52:50.624000+00:00,-0.032967,-0.010989
2026-01-07 09:52:50.628000+00:00,-0.010989,-0.010989
2026-01-07 09:52:50.632000+00:00,-0.010989,-0.010989
2026-01-07 09:52:50.636000+00:00,0.010989,0.0
2026-01-07 09:52:50.640000+00:00,0.010989,0.0
2026-01-07 09:52:50.644000+00:00,0.010989,0.010989
2026-01-07 09:52:50.648000+00:00,0.0,-0.010989
2026-01-07 09:52:50.651000+00:00,-0.021978,-0.021978
2026-01-07 09:52:50.655000+00:00,-0.032967,-0.032967
2026-01-07 09:52:50.659000+00:00,-0.021978,-0.010989
2026-01-07 09:52:50.663000+00:00,-0.021978,-0.032967
2026-01-07 09:52:50.667000+00:00,-0.021978,-0.032967
2026-01-07 09:52:50.671000+00:00,-0.010989,-0.010989
2026-01-07 09:52:50.675000+00:00,-0.021978,-0.010989
2026-01-07 09:52:50.679000+00:00,-0.010989,-0.010989
2026-01-07 09:52:50.683000+00:00,-0.021978,-0.021978
2026-01-07 09:52:50.687000+00:00,-0.032967,-0.043956
2026-01-07 09:52:50.690000+00:00,-0.032967,-0.021978
2026-01-07 09:52:50.694000+00:00,-0.021978,0.0
2026-01-07 09:52:50.698000+00:00,-0.010989,0.0
2026-01-07 09:52:50.702000+00:00,-0.021978,-0.010989
2026-01-07 09:52:50.706000+00:00,-0.010989,-0.010989
2026-01-07 09:52:50.710000+00:00,0.010989,0.010989
2026-01-07 09:52:50.714000+00:00,0.021978,0.021978
2026-01-07 09:52:50.718000+00:00,0.021978,0.010989
2026-01-07 09:52:50.722000+00:00,0.010989,0.0
2026-01-07 09:52:50.726000+00:00,-0.032967,-0.010989
2026-01-07 09:52:50.730000+00:00,-0.021978,0.010989
2026-01-07 09:52:50.733000+00:00,-0.021978,0.010989
2026-01-07 09:52:50.737000+00:00,-0.021978,-0.010989
2026-01-07 09:52:50.741000+00:00,0.010989,-0.010989
2026-01-07 09:52:50.745000+00:00,0.010989,-0.010989
2026-01-07 09:52:50.749000+00:00,0.010989,-0.010989
2026-01-07 09:52:50.753000+00:00,0.021978,-0.010989
2026-01-07 09:52:50.757000+00:00,0.010989,-0.010989
2026-01-07 09:52:50.761000+00:00,-0.021978,-0.032967
2026-01-07 09:52:50.765000+00:00,-0.021978,-0.021978
2026-01-07 09:52:50.769000+00:00,-0.043956,-0.043956
2026-01-07 09:52:50.773000+00:00,-0.043956,-0.032967
2026-01-07 09:52:50.776000+00:00,-0.043956,-0.043956
2026-01-07 09:52:50.780000+00:00,-0.043956,-0.043956
2026-01-07 09:52:50.784000+00:00,-0.021978,-0.032967
2026-01-07 09:52:50.788000+00:00,-0.021978,-0.032967
2026-01-07 09:52:50.792000+00:00,-0.043956,-0.032967
2026-01-07 09:52:50.796000+00:00,-0.065934,-0.043956
2026-01-07 09:52:50.800000+00:00,-0.065934,-0.054945
2026-01-07 09:52:50.804000+00:00,-0.043956,-0.032967
2026-01-07 09:52:50.808000+00:00,-0.010989,-0.010989
2026-01-07 09:52:50.812000+00:00,0.0,0.0
2026-01-07 09:52:50.815000+00:00,-0.010989,-0.010989
2026-01-07 09:52:50.819000+00:00,-0.043956,-0.010989
2026-01-07 09:52:50.823000+00:00,0.010989,0.043956
2026-01-07 09:52:50.827000+00:00,0.10989,0.164835
2026-01-07 09:52:50.831000+00:00,0.230769,0.285714
2026-01-07 09:52:50.835000+00:00,0.450549,0.505494
2026-01-07 09:52:50.839000+00:00,0.714285,0.714285
2026-01-07 09:52:50.843000+00:00,0.890109,0.824175
2026-01-07 09:52:50.847000+00:00,0.912087,0.747252
2026-01-07 09:52:50.851000+00:00,0.582417,0.373626
2026-01-07 09:52:50.855000+00:00,-0.010989,-0.197802
2026-01-07 09:52:50.858000+00:00,-0.593406,-0.692307
2026-01-07 09:52:50.862000+00:00,-0.835164,-0.890109
2026-01-07 09:52:50.866000+00:00,-0.802197,-0.802197
2026-01-07 09:52:50.870000+00:00,-0.615384,-0.560439
2026-01-07 09:52:50.874000+00:00,-0.43956,-0.340659
2026-01-07 09:52:50.878000+00:00,-0.296703,-0.186813
2026-01-07 09:52:50.882000+00:00,-0.21978,-0.120879
2026-01-07 09:52:50.886000+00:00,-0.175824,-0.10989
2026-01-07 09:52:50.890000+00:00,-0.142857,-0.098901
2026-01-07 09:52:50.894000+00:00,-0.10989,-0.076923
2026-01-07 09:52:50.898000+00:00,-0.098901,-0.076923
2026-01-07 09:52:50.901000+00:00,-0.076923,-0.054945
2026-01-07 09:52:50.905000+00:00,-0.065934,-0.043956
2026-01-07 09:52:50.909000+00:00,-0.054945,-0.032967
2026-01-07 09:52:50.913000+00:00,-0.032967,-0.010989
2026-01-07 09:52:50.917000+00:00,-0.021978,-0.010989
2026-01-07 09:52:50.921000+00:00,-0.021978,-0.010989
2026-01-07 09:52:50.925000+00:00,-0.032967,-0.021978
2026-01-07 09:52:50.929000+00:00,-0.021978,-0.010989
2026-01-07 09:52:50.933000+00:00,0.010989,0.010989
2026-01-07 09:52:50.937000+00:00,0.021978,0.032967
2026-01-07 09:52:50.940000+00:00,0.0,0.010989
2026-01-07 09:52:50.944000+00:00,0.010989,-0.010989
2026-01-07 09:52:50.948000+00:00,0.0,-0.021978
2026-01-07 09:52:50.952000+00:00,-0.021978,-0.021978
2026-01-07 09:52:50.956000+00:00,-0.043956,-0.010989
2026-01-07 09:52:50.960000+00:00,-0.021978,0.010989
2026-01-07 09:52:50.964000+00:00,0.010989,0.010989
2026-01-07 09:52:50.968000+00:00,0.010989,0.0
2026-01-07 09:52:50.972000+00:00,0.054945,0.021978
2026-01-07 09:52:50.976000+00:00,0.054945,0.032967
2026-01-07 09:52:50.980000+00:00,0.032967,0.032967
2026-01-07 09:52:50.983000+00:00,0.010989,0.021978
2026-01-07 09:52:50.987000+00:00,0.032967,0.032967
2026-01-07 09:52:50.991000+00:00,0.032967,0.032967
2026-01-07 09:52:50.995000+00:00,0.043956,0.032967
2026-01-07 09:52:50.999000+00:00,0.043956,0.043956
2026-01-07 09:52:51.003000+00:00,0.065934,0.054945
2026-01-07 09:52:51.007000+00:00,0.065934,0.065934
2026-01-07 09:52:51.011000+00:00,0.054945,0.065934
2026-01-07 09:52:51.015000+00:00,0.054945,0.065934
2026-01-07 09:52:51.019000+00:00,0.076923,0.076923
2026-01-07 09:52:51.023000+00:00,0.065934,0.065934
2026-01-07 09:52:51.026000+00:00,0.065934,0.054945
2026-01-07 09:52:51.030000+00:00,0.043956,0.054945
2026-01-07 09:52:51.034000+00:00,0.043956,0.054945
2026-01-07 09:52:51.038000+00:00,0.043956,0.054945
2026-01-07 09:52:51.042000+00:00,0.043956,0.043956
2026-01-07 09:52:51.046000+00:00,0.032967,0.010989
2026-01-07 09:52:51.050000+00:00,-0.010989,-0.021978
2026-01-07 09:52:51.054000+00:00,-0.010989,-0.021978
2026-01-07 09:52:51.058000+00:00,-0.010989,-0.021978
2026-01-07 09:52:51.062000+00:00,-0.043956,-0.043956
2026-01-07 09:52:51.065000+00:00,-0.043956,-0.032967
2026-01-07 09:52:51.069000+00:00,-0.065934,-0.043956
2026-01-07 09:52:51.073000+00:00,-0.087912,-0.076923
2026-01-07 09:52:51.077000+00:00,-0.10989,-0.10989
2026-01-07 09:52:51.081000+00:00,-0.10989,-0.10989
2026-01-07 09:52:51.085000+00:00,-0.10989,-0.120879
2026-01-07 09:52:51.089000+00:00,-0.087912,-0.10989
2026-01-07 09:52:51.093000+00:00,-0.076923,-0.10989
2026-01-07 09:52:51.097000+00:00,-0.098901,-0.10989
2026-01-07 09:52:51.101000+00:00,-0.120879,-0.10989
2026-01-07 09:52:51.105000+00:00,-0.10989,-0.10989
2026-01-07 09:52:51.108000+00:00,-0.087912,-0.098901
2026-01-07 09:52:51.112000+00:00,-0.065934,-0.076923
2026-01-07 09:52:51.116000+00:00,-0.076923,-0.076923
2026-01-07 09:52:51.120000+00:00,-0.065934,-0.076923
2026-01-07 09:52:51.124000+00:00,-0.065934,-0.076923
2026-01-07 09:52:51.128000+00:00,-0.065934,-0.065934
2026-01-07 09:52:51.132000+00:00,-0.032967,-0.043956
2026-01-07 09:52:51.136000+00:00,-0.021978,-0.032967
2026-01-07 09:52:51.140000+00:00,-0.054945,-0.065934
2026-01-07 09:52:51.144000+00:00,-0.021978,-0.021978
2026-01-07 09:52:51.148000+00:00,0.0,0.010989
2026-01-07 09:52:51.151000+00:00,0.0,0.0
2026-01-07 09:52:51.155000+00:00,-0.032967,-0.032967
2026-01-07 09:52:51.159000+00:00,-0.021978,-0.010989
2026-01-07 09:52:51.163000+00:00,0.0,0.0
2026-01-07 09:52:51.167000+00:00,0.0,0.0
2026-01-07 09:52:51.171000+00:00,0.0,0.0
2026-01-07 09:52:51.175000+00:00,-0.010989,-0.010989
2026-01-07 09:52:51.179000+00:00,-0.032967,-0.032967
2026-01-07 09:52:51.183000+00:00,-0.032967,-0.043956
2026-01-07 09:52:51.187000+00:00,-0.010989,-0.021978
2026-01-07 09:52:51.190000+00:00,-0.021978,-0.021978
2026-01-07 09:52:51.194000+00:00,0.0,0.0
2026-01-07 09:52:51.198000+00:00,0.010989,0.010989
2026-01-07 09:52:51.202000+00:00,-0.010989,-0.010989
2026-01-07 09:52:51.206000+00:00,-0.010989,-0.021978
2026-01-07 09:52:51.210000+00:00,-0.010989,-0.021978
2026-01-07 09:52:51.214000+00:00,-0.032967,-0.032967
2026-01-07 09:52:51.218000+00:00,-0.054945,-0.043956
2026-01-07 09:52:51.222000+00:00,-0.043956,-0.054945
2026-01-07 09:52:51.226000+00:00,-0.032967,-0.043956
2026-01-07 09:52:51.230000+00:00,-0.021978,-0.032967
2026-01-07 09:52:51.233000+00:00,0.010989,0.010989
2026-01-07 09:52:51.237000+00:00,0.010989,0.010989
2026-01-07 09:52:51.241000+00:00,0.0,-0.010989
2026-01-07 09:52:51.245000+00:00,-0.021978,-0.021978
2026-01-07 09:52:51.249000+00:00,-0.021978,-0.021978
2026-01-07 09:52:51.253000+00:00,-0.032967,-0.021978
2026-01-07 09:52:51.257000+00:00,-0.054945,-0.043956
2026-01-07 09:52:51.261000+00:00,-0.043956,-0.054945
2026-01-07 09:52:51.265000+00:00,-0.043956,-0.043956
2026-01-07 09:52:51.269000+00:00,-0.032967,-0.021978
2026-01-07 09:52:51.273000+00:00,0.0,0.0
2026-01-07 09:52:51.276000+00:00,0.010989,0.0
2026-01-07 09:52:51.280000+00:00,-0.010989,-0.010989
2026-01-07 09:52:51.284000+00:00,-0.010989,-0.010989
2026-01-07 09:52:51.288000+00:00,-0.010989,-0.010989
2026-01-07 09:52:51.292000+00:00,-0.010989,-0.010989
2026-01-07 09:52:51.296000+00:00,-0.032967,-0.010989
2026-01-07 09:52:51.300000+00:00,-0.032967,-0.010989
2026-01-07 09:52:51.304000+00:00,-0.021978,-0.021978
2026-01-07 09:52:51.308000+00:00,-0.021978,-0.032967
2026-01-07 09:52:51.312000+00:00,-0.032967,-0.043956
2026-01-07 09:52:51.315000+00:00,-0.032967,-0.032967
2026-01-07 09:52:51.319000+00:00,-0.010989,-0.010989
2026-01-07 09:52:51.323000+00:00,-0.010989,-0.010989
2026-01-07 09:52:51.327000+00:00,-0.032967,-0.021978
2026-01-07 09:52:51.331000+00:00,-0.021978,-0.021978
2026-01-07 09:52:51.335000+00:00,-0.021978,-0.032967
2026-01-07 09:52:51.339000+00:00,-0.021978,-0.021978
2026-01-07 09:52:51.343000+00:00,-0.032967,-0.021978
2026-01-07 09:52:51.347000+00:00,-0.021978,-0.010989
2026-01-07 09:52:51.351000+00:00,0.0,0.010989
2026-01-07 09:52:51.355000+00:00,0.0,0.0
2026-01-07 09:52:51.358000+00:00,0.0,0.010989
2026-01-07 09:52:51.362000+00:00,0.0,0.021978
2026-01-07 09:52:51.366000+00:00,-0.010989,0.010989
2026-01-07 09:52:51.370000+00:00,-0.010989,-0.010989
2026-01-07 09:52:51.374000+00:00,-0.010989,-0.010989
2026-01-07 09:52:51.378000+00:00,0.0,0.0
2026-01-07 09:52:51.382000+00:00,0.021978,0.0
2026-01-07 09:52:51.386000+00:00,0.0,-0.021978
2026-01-07 09:52:51.390000+00:00,0.021978,-0.010989
2026-01-07 09:52:51.394000+00:00,0.032967,0.0
2026-01-07 09:52:51.398000+00:00,0.0,-0.010989
2026-01-07 09:52:51.401000+00:00,-0.043956,-0.021978
2026-01-07 09:52:51.405000+00:00,-0.054945,-0.043956
2026-01-07 09:52:51.409000+00:00,-0.043956,-0.043956
2026-01-07 09:52:51.413000+00:00,-0.043956,-0.043956
2026-01-07 09:52:51.417000+00:00,-0.076923,-0.087912
2026-01-07 09:52:51.421000+00:00,-0.076923,-0.098901
2026-01-07 09:52:51.425000+00:00,-0.021978,-0.043956
2026-01-07 09:52:51.429000+00:00,0.010989,0.010989
2026-01-07 09:52:51.433000+00:00,0.0,0.0
2026-01-07 09:52:51.437000+00:00,-0.010989,-0.021978
2026-01-07 09:52:51.440000+00:00,-0.032967,-0.032967
2026-01-07 09:52:51.444000+00:00,-0.043956,-0.043956
2026-01-07 09:52:51.448000+00:00,-0.032967,-0.043956
2026-01-07 09:52:51.452000+00:00,-0.043956,-0.032967
2026-01-07 09:52:51.456000+00:00,-0.054945,-0.043956
2026-01-07 09:52:51.460000+00:00,-0.065934,-0.043956
2026-01-07 09:52:51.464000+00:00,0.010989,0.043956
2026-01-07 09:52:51.468000+00:00,0.164835,0.186813
2026-01-07 09:52:51.472000+00:00,0.32967,0.362637
2026-01-07 09:52:51.476000+00:00,0.527472,0.571428
2026-01-07 09:52:51.480000+00:00,0.780219,0.76923
2026-01-07 09:52:51.483000+00:00,0.923076,0.846153
2026-01-07 09:52:51.487000+00:00,0.857142,0.703296
2026-01-07 09:52:51.491000+00:00,0.461538,0.241758
2026-01-07 09:52:51.495000+00:00,-0.175824,-0.373626
2026-01-07 09:52:51.499000+00:00,-0.670329,-0.813186
2026-01-07 09:52:51.503000+00:00,-0.846153,-0.934065
2026-01-07 09:52:51.507000+00:00,-0.780219,-0.780219
2026-01-07 09:52:51.511000+00:00,-0.604395,-0.538461
2026-01-07 09:52:51.515000+00:00,-0.450549,-0.32967
2026-01-07 09:52:51.519000+00:00,-0.351648,-0.208791
2026-01-07 09:52:51.523000+00:00,-0.263736,-0.153846
2026-01-07 09:52:51.526000+00:00,-0.186813,-0.120879
2026-01-07 09:52:51.530000+00:00,-0.153846,-0.098901
2026-01-07 09:52:51.534000+00:00,-0.120879,-0.076923
2026-01-07 09:52:51.538000+00:00,-0.076923,-0.054945
2026-01-07 09:52:51.542000+00:00,-0.065934,-0.043956
2026-01-07 09:52:51.546000+00:00,-0.065934,-0.032967
2026-01-07 09:52:51.550000+00:00,-0.054945,-0.032967
2026-01-07 09:52:51.554000+00:00,-0.043956,-0.021978
2026-01-07 09:52:51.558000+00:00,-0.021978,-0.021978
2026-01-07 09:52:51.562000+00:00,0.0,-0.010989
2026-01-07 09:52:51.565000+00:00,-0.021978,-0.021978
2026-01-07 09:52:51.569000+00:00,-0.021978,-0.010989
2026-01-07 09:52:51.573000+00:00,-0.010989,0.0
2026-01-07 09:52:51.577000+00:00,-0.010989,0.0
2026-01-07 09:52:51.581000+00:00,-0.010989,-0.010989
2026-01-07 09:52:51.585000+00:00,0.0,-0.010989
2026-01-07 09:52:51.589000+00:00,0.021978,0.021978
2026-01-07 09:52:51.593000+00:00,0.0,0.010989
2026-01-07 09:52:51.597000+00:00,-0.021978,-0.010989
2026-01-07 09:52:51.601000+00:00,-0.010989,0.0
2026-01-07 09:52:51.605000+00:00,0.0,0.010989
2026-01-07 09:52:51.608000+00:00,0.0,0.010989
2026-01-07 09:52:51.612000+00:00,0.021978,0.032967
2026-01-07 09:52:51.616000+00:00,0.032967,0.032967
2026-01-07 09:52:51.620000+00:00,0.043956,0.043956
2026-01-07 09:52:51.624000+00:00,0.032967,0.032967
2026-01-07 09:52:51.628000+00:00,0.021978,0.010989
2026-01-07 09:52:51.632000+00:00,0.0,0.0
2026-01-07 09:52:51.636000+00:00,0.010989,0.021978
2026-01-07 09:52:51.640000+00:00,0.043956,0.054945
2026-01-07 09:52:51.644000+00:00,0.065934,0.065934
2026-01-07 09:52:51.648000+00:00,0.076923,0.076923
2026-01-07 09:52:51.651000+00:00,0.076923,0.076923
2026-01-07 09:52:51.655000+00:00,0.065934,0.065934
2026-01-07 09:52:51.659000+00:00,0.065934,0.065934
2026-01-07 09:52:51.663000+00:00,0.065934,0.065934
2026-01-07 09:52:51.667000+00:00,0.076923,0.065934
2026-01-07 09:52:51.671000+00:00,0.087912,0.087912
2026-01-07 09:52:51.675000+00:00,0.076923,0.087912
2026-01-07 09:52:51.679000+00:00,0.043956,0.076923
2026-01-07 09:52:51.683000+00:00,0.021978,0.043956
2026-01-07 09:52:51.687000+00:00,0.010989,0.010989
2026-01-07 09:52:51.690000+00:00,-0.010989,-0.010989
2026-01-07 09:52:51.694000+00:00,-0.032967,-0.032967
2026-01-07 09:52:51.698000+00:00,-0.054945,-0.032967
2026-01-07 09:52:51.702000+00:00,-0.043956,-0.043956
2026-01-07 09:52:51.706000+00:00,-0.065934,-0.054945
2026-01-07 09:52:51.710000+00:00,-0.087912,-0.076923
2026-01-07 09:52:51.714000+00:00,-0.076923,-0.076923
2026-01-07 09:52:51.718000+00:00,-0.087912,-0.098901
2026-01-07 09:52:51.722000+00:00,-0.142857,-0.10989
2026-01-07 09:52:51.726000+00:00,-0.142857,-0.098901
2026-01-07 09:52:51.730000+00:00,-0.131868,-0.10989
2026-01-07 09:52:51.733000+00:00,-0.131868,-0.131868
2026-01-07 09:52:51.737000+00:00,-0.120879,-0.131868
2026-01-07 09:52:51.741000+00:00,-0.120879,-0.10989
2026-01-07 09:52:51.745000+00:00,-0.098901,-0.087912
2026-01-07 09:52:51.749000+00:00,-0.087912,-0.087912
2026-01-07 09:52:51.753000+00:00,-0.087912,-0.098901
2026-01-07 09:52:51.757000+00:00,-0.076923,-0.098901
2026-01-07 09:52:51.761000+00:00,-0.065934,-0.087912
2026-01-07 09:52:51.765000+00:00,-0.043956,-0.065934
2026-01-07 09:52:51.769000+00:00,-0.043956,-0.054945
2026-01-07 09:52:51.773000+00:00,-0.032967,-0.043956
2026-01-07 09:52:51.776000+00:00,-0.043956,-0.043956
2026-01-07 09:52:51.780000+00:00,-0.054945,-0.043956
2026-01-07 09:52:51.784000+00:00,-0.032967,-0.021978
2026-01-07 09:52:51.788000+00:00,-0.010989,0.0
2026-01-07 09:52:51.792000+00:00,0.010989,0.0
2026-01-07 09:52:51.796000+00:00,-0.032967,-0.021978
2026-01-07 09:52:51.800000+00:00,-0.054945,-0.010989
2026-01-07 09:52:51.804000+00:00,-0.032967,-0.010989
2026-01-07 09:52:51.808000+00:00,-0.010989,-0.021978
2026-01-07 09:52:51.812000+00:00,-0.010989,-0.010989
2026-01-07 09:52:51.815000+00:00,-0.021978,-0.010989
2026-01-07 09:52:51.819000+00:00,-0.010989,-0.010989
2026-01-07 09:52:51.823000+00:00,-0.021978,-0.021978
2026-01-07 09:52:51.827000+00:00,0.0,-0.010989
2026-01-07 09:52:51.831000+00:00,0.0,-0.010989
2026-01-07 09:52:51.835000+00:00,-0.010989,-0.021978
2026-01-07 09:52:51.839000+00:00,-0.010989,0.0
2026-01-07 09:52:51.843000+00:00,-0.010989,0.0
2026-01-07 09:52:51.847000+00:00,0.010989,0.0
2026-01-07 09:52:51.851000+00:00,0.010989,-0.010989
2026-01-07 09:52:51.855000+00:00,-0.021978,-0.021978
2026-01-07 09:52:51.858000+00:00,-0.010989,-0.021978
2026-01-07 09:52:51.862000+00:00,-0.021978,-0.010989
2026-01-07 09:52:51.866000+00:00,-0.032967,0.0
2026-01-07 09:52:51.870000+00:00,-0.032967,-0.032967
2026-01-07 09:52:51.874000+00:00,-0.032967,-0.043956
2026-01-07 09:52:51.878000+00:00,-0.021978,-0.021978
2026-01-07 09:52:51.882000+00:00,-0.032967,-0.010989
2026-01-07 09:52:51.886000+00:00,-0.032967,-0.021978
2026-01-07 09:52:51.890000+00:00,0.0,0.0
2026-01-07 09:52:51.894000+00:00,0.010989,0.010989
2026-01-07 09:52:51.898000+00:00,0.021978,0.0
2026-01-07 09:52:51.901000+00:00,0.0,-0.021978
2026-01-07 09:52:51.905000+00:00,-0.032967,-0.032967
2026-01-07 09:52:51.909000+00:00,-0.032967,-0.021978
2026-01-07 09:52:51.913000+00:00,-0.032967,0.0
2026-01-07 09:52:51.917000+00:00,-0.021978,0.0
2026-01-07 09:52:51.921000+00:00,0.0,0.0
2026-01-07 09:52:51.925000+00:00,-0.010989,-0.021978
2026-01-07 09:52:51.929000+00:00,-0.065934,-0.043956
2026-01-07 09:52:51.933000+00:00,-0.054945,-0.032967
2026-01-07 09:52:51.937000+00:00,-0.010989,-0.010989
2026-01-07 09:52:51.940000+00:00,0.010989,0.0
2026-01-07 09:52:51.944000+00:00,0.0,0.0
2026-01-07 09:52:51.948000+00:00,-0.021978,-0.032967
2026-01-07 09:52:51.952000+00:00,-0.021978,-0.021978
2026-01-07 09:52:51.956000+00:00,0.0,-0.010989
2026-01-07 09:52:51.960000+00:00,0.010989,0.010989
2026-01-07 09:52:51.964000+00:00,0.0,0.0
2026-01-07 09:52:51.968000+00:00,-0.021978,-0.021978
2026-01-07 09:52:51.972000+00:00,-0.010989,-0.010989
2026-01-07 09:52:51.976000+00:00,0.0,0.0
2026-01-07 09:52:51.980000+00:00,-0.010989,-0.010989
2026-01-07 09:52:51.983000+00:00,0.0,0.0
2026-01-07 09:52:51.987000+00:00,-0.010989,0.0
2026-01-07 09:52:51.991000+00:00,0.0,0.0
2026-01-07 09:52:51.995000+00:00,-0.032967,-0.010989
2026-01-07 09:52:51.999000+00:00,-0.021978,0.0
2026-01-07 09:52:52.003000+00:00,-0.032967,-0.010989
2026-01-07 09:52:52.007000+00:00,-0.021978,-0.010989
2026-01-07 09:52:52.011000+00:00,-0.010989,0.0
2026-01-07 09:52:52.015000+00:00,0.021978,0.021978
2026-01-07 09:52:52.019000+00:00,0.043956,0.032967
2026-01-07 09:52:52.023000+00:00,0.032967,0.021978
2026-01-07 09:52:52.026000+00:00,0.010989,0.010989
2026-01-07 09:52:52.030000+00:00,0.021978,0.010989
2026-01-07 09:52:52.034000+00:00,0.0,-0.010989
2026-01-07 09:52:52.038000+00:00,-0.021978,-0.021978
2026-01-07 09:52:52.042000+00:00,-0.021978,-0.010989
2026-01-07 09:52:52.046000+00:00,-0.010989,-0.021978
2026-01-07 09:52:52.050000+00:00,-0.043956,-0.043956
2026-01-07 09:52:52.054000+00:00,-0.076923,-0.054945
2026-01-07 09:52:52.058000+00:00,-0.054945,-0.043956
2026-01-07 09:52:52.062000+00:00,-0.043956,-0.032967
2026-01-07 09:52:52.065000+00:00,-0.043956,-0.032967
2026-01-07 09:52:52.069000+00:00,-0.054945,-0.032967
2026-01-07 09:52:52.073000+00:00,-0.021978,-0.010989
2026-01-07 09:52:52.077000+00:00,-0.021978,-0.010989
2026-01-07 09:52:52.081000+00:00,-0.021978,-0.010989
2026-01-07 09:52:52.085000+00:00,0.0,0.021978
2026-01-07 09:52:52.089000+00:00,0.010989,0.010989
2026-01-07 09:52:52.093000+00:00,0.010989,0.0
2026-01-07 09:52:52.097000+00:00,-0.032967,-0.021978
2026-01-07 09:52:52.101000+00:00,-0.043956,0.0
2026-01-07 09:52:52.105000+00:00,0.0,0.065934
2026-01-07 09:52:52.108000+00:00,0.153846,0.208791
2026-01-07 09:52:52.112000+00:00,0.362637,0.417582
2026-01-07 09:52:52.116000+00:00,0.604395,0.65934
2026-01-07 09:52:52.120000+00:00,0.868131,0.868131
2026-01-07 09:52:52.124000+00:00,1.021977,0.923076
2026-01-07 09:52:52.128000+00:00,0.923076,0.736263
2026-01-07 09:52:52.132000+00:00,0.472527,0.230769
2026-01-07 09:52:52.136000+00:00,-0.230769,-0.417582
2026-01-07 09:52:52.140000+00:00,-0.76923,-0.87912
2026-01-07 09:52:52.144000+00:00,-0.934065,-0.978021
2026-01-07 09:52:52.148000+00:00,-0.835164,-0.802197
2026-01-07 09:52:52.151000+00:00,-0.626373,-0.54945
2026-01-07 09:52:52.155000+00:00,-0.461538,-0.351648
2026-01-07 09:52:52.159000+00:00,-0.32967,-0.208791
2026-01-07 09:52:52.163000+00:00,-0.252747,-0.153846
2026-01-07 09:52:52.167000+00:00,-0.197802,-0.120879
2026-01-07 09:52:52.171000+00:00,-0.142857,-0.076923
2026-01-07 09:52:52.175000+00:00,-0.142857,-0.076923
2026-01-07 09:52:52.179000+00:00,-0.10989,-0.065934
2026-01-07 09:52:52.183000+00:00,-0.076923,-0.032967
2026-01-07 09:52:52.187000+00:00,-0.065934,-0.021978
2026-01-07 09:52:52.190000+00:00,-0.032967,-0.010989
2026-01-07 09:52:52.194000+00:00,-0.010989,0.0
2026-01-07 09:52:52.198000+00:00,-0.010989,-0.010989
2026-01-07 09:52:52.202000+00:00,-0.054945,-0.032967
2026-01-07 09:52:52.206000+00:00,-0.054945,-0.043956
2026-01-07 09:52:52.210000+00:00,0.010989,0.010989
2026-01-07 09:52:52.214000+00:00,0.032967,0.021978
2026-01-07 09:52:52.218000+00:00,0.021978,0.032967
2026-01-07 09:52:52.222000+00:00,0.010989,0.032967
2026-01-07 09:52:52.226000+00:00,0.0,0.021978
2026-01-07 09:52:52.230000+00:00,-0.010989,0.0
2026-01-07 09:52:52.233000+00:00,-0.021978,0.0
2026-01-07 09:52:52.237000+00:00,-0.010989,0.0
2026-01-07 09:52:52.241000+00:00,0.0,0.010989
2026-01-07 09:52:52.245000+00:00,0.021978,0.010989
2026-01-07 09:52:52.249000+00:00,0.021978,0.021978
2026-01-07 09:52:52.253000+00:00,0.010989,0.0
2026-01-07 09:52:52.257000+00:00,0.010989,-0.010989
2026-01-07 09:52:52.261000+00:00,0.032967,0.021978
2026-01-07 09:52:52.265000+00:00,0.054945,0.065934
2026-01-07 09:52:52.269000+00:00,0.032967,0.065934
2026-01-07 09:52:52.273000+00:00,0.010989,0.043956
2026-01-07 09:52:52.276000+00:00,0.043956,0.043956
2026-01-07 09:52:52.280000+00:00,0.054945,0.054945
2026-01-07 09:52:52.284000+00:00,0.065934,0.076923
2026-01-07 09:52:52.288000+00:00,0.076923,0.087912
2026-01-07 09:52:52.292000+00:00,0.087912,0.087912
2026-01-07 09:52:52.296000+00:00,0.065934,0.076923
2026-01-07 09:52:52.300000+00:00,0.065934,0.087912
2026-01-07 09:52:52.304000+00:00,0.065934,0.087912
2026-01-07 09:52:52.308000+00:00,0.054945,0.076923
2026-01-07 09:52:52.312000+00:00,0.098901,0.087912
2026-01-07 09:52:52.315000+00:00,0.076923,0.076923
2026-01-07 09:52:52.319000+00:00,0.032967,0.054945
2026-01-07 09:52:52.323000+00:00,0.010989,0.043956
2026-01-07 09:52:52.327000+00:00,0.021978,0.043956
2026-01-07 09:52:52.331000+00:00,0.021978,0.021978
2026-01-07 09:52:52.335000+00:00,0.0,0.0
2026-01-07 09:52:52.339000+00:00,-0.043956,-0.021978
2026-01-07 09:52:52.343000+00:00,-0.087912,-0.054945
2026-01-07 09:52:52.347000+00:00,-0.087912,-0.054945
2026-01-07 09:52:52.351000+00:00,-0.087912,-0.054945
2026-01-07 09:52:52.355000+00:00,-0.098901,-0.076923
2026-01-07 09:52:52.358000+00:00,-0.098901,-0.098901
2026-01-07 09:52:52.362000+00:00,-0.10989,-0.10989
2026-01-07 09:52:52.366000+00:00,-0.10989,-0.10989
2026-01-07 09:52:52.370000+00:00,-0.087912,-0.098901
2026-01-07 09:52:52.374000+00:00,-0.10989,-0.098901
2026-01-07 09:52:52.378000+00:00,-0.142857,-0.120879
2026-01-07 09:52:52.382000+00:00,-0.153846,-0.131868
2026-01-07 09:52:52.386000+00:00,-0.120879,-0.10989
2026-01-07 09:52:52.390000+00:00,-0.087912,-0.087912
2026-01-07 09:52:52.394000+00:00,-0.065934,-0.054945
2026-01-07 09:52:52.398000+00:00,-0.087912,-0.076923
2026-01-07 09:52:52.401000+00:00,-0.076923,-0.065934
2026-01-07 09:52:52.405000+00:00,-0.054945,-0.043956
2026-01-07 09:52:52.409000+00:00,-0.021978,-0.032967
2026-01-07 09:52:52.413000+00:00,-0.032967,-0.043956
2026-01-07 09:52:52.417000+00:00,-0.032967,-0.043956
2026-01-07 09:52:52.421000+00:00,-0.043956,-0.043956
2026-01-07 09:52:52.425000+00:00,-0.021978,-0.021978
2026-01-07 09:52:52.429000+00:00,-0.010989,0.0
2026-01-07 09:52:52.433000+00:00,-0.010989,0.010989
2026-01-07 09:52:52.437000+00:00,-0.010989,0.010989
2026-01-07 09:52:52.440000+00:00,-0.010989,-0.010989
2026-01-07 09:52:52.444000+00:00,0.0,-0.021978
2026-01-07 09:52:52.448000+00:00,-0.021978,-0.021978
2026-01-07 09:52:52.452000+00:00,-0.021978,-0.021978
2026-01-07 09:52:52.456000+00:00,-0.010989,-0.010989
2026-01-07 09:52:52.460000+00:00,-0.010989,0.0
2026-01-07 09:52:52.464000+00:00,-0.010989,-0.010989
2026-01-07 09:52:52.468000+00:00,-0.032967,-0.010989
2026-01-07 09:52:52.472000+00:00,-0.032967,-0.010989
2026-01-07 09:52:52.476000+00:00,-0.021978,0.0
2026-01-07 09:52:52.480000+00:00,-0.021978,-0.010989
2026-01-07 09:52:52.483000+00:00,-0.032967,-0.021978
2026-01-07 09:52:52.487000+00:00,-0.021978,-0.021978
2026-01-07 09:52:52.491000+00:00,0.0,-0.010989
2026-01-07 09:52:52.495000+00:00,0.021978,0.010989
2026-01-07 09:52:52.499000+00:00,0.0,0.0
2026-01-07 09:52:52.503000+00:00,-0.010989,-0.010989
2026-01-07 09:52:52.507000+00:00,-0.021978,-0.010989
2026-01-07 09:52:52.511000+00:00,-0.010989,-0.010989
2026-01-07 09:52:52.515000+00:00,-0.010989,-0.021978
2026-01-07 09:52:52.519000+00:00,-0.010989,-0.010989
2026-01-07 09:52:52.523000+00:00,-0.032967,-0.010989
2026-01-07 09:52:52.526000+00:00,-0.043956,-0.010989
2026-01-07 09:52:52.530000+00:00,-0.032967,-0.010989
2026-01-07 09:52:52.534000+00:00,0.0,0.0
2026-01-07 09:52:52.538000+00:00,0.010989,0.021978
2026-01-07 09:52:52.542000+00:00,0.0,0.010989
2026-01-07 09:52:52.546000+00:00,-0.021978,-0.021978
2026-01-07 09:52:52.550000+00:00,-0.021978,-0.032967
2026-01-07 09:52:52.554000+00:00,-0.021978,-0.021978
2026-01-07 09:52:52.558000+00:00,-0.010989,0.0
2026-01-07 09:52:52.562000+00:00,-0.021978,0.0
2026-01-07 09:52:52.565000+00:00,-0.021978,-0.010989
2026-01-07 09:52:52.569000+00:00,0.0,-0.010989
2026-01-07 09:52:52.573000+00:00,0.0,0.0
2026-01-07 09:52:52.577000+00:00,0.0,0.021978
2026-01-07 09:52:52.581000+00:00,-0.010989,0.010989
2026-01-07 09:52:52.585000+00:00,-0.021978,-0.010989
2026-01-07 09:52:52.589000+00:00,-0.021978,0.0
2026-01-07 09:52:52.593000+00:00,-0.010989,0.010989
2026-01-07 09:52:52.597000+00:00,-0.021978,-0.010989
2026-01-07 09:52:52.601000+00:00,-0.010989,-0.010989
2026-01-07 09:52:52.605000+00:00,-0.010989,0.0
2026-01-07 09:52:52.608000+00:00,-0.021978,-0.010989
2026-01-07 09:52:52.612000+00:00,-0.010989,0.0
2026-01-07 09:52:52.616000+00:00,-0.010989,0.0
2026-01-07 09:52:52.620000+00:00,-0.021978,-0.021978
2026-01-07 09:52:52.624000+00:00,-0.010989,-0.010989
2026-01-07 09:52:52.628000+00:00,0.0,0.0
2026-01-07 09:52:52.632000+00:00,0.0,0.0
2026-01-07 09:52:52.636000+00:00,-0.010989,0.010989
2026-01-07 09:52:52.640000+00:00,-0.021978,0.0
2026-01-07 09:52:52.644000+00:00,-0.032967,-0.021978
2026-01-07 09:52:52.648000+00:00,-0.021978,0.0
2026-01-07 09:52:52.651000+00:00,-0.021978,0.010989
2026-01-07 09:52:52.655000+00:00,-0.010989,0.010989
2026-01-07 09:52:52.659000+00:00,0.021978,0.021978
2026-01-07 09:52:52.663000+00:00,0.021978,0.021978
2026-01-07 09:52:52.667000+00:00,0.021978,0.0
2026-01-07 09:52:52.671000+00:00,0.032967,0.0
2026-01-07 09:52:52.675000+00:00,0.021978,-0.010989
2026-01-07 09:52:52.679000+00:00,0.010989,0.0
2026-01-07 09:52:52.683000+00:00,0.010989,0.021978
2026-01-07 09:52:52.687000+00:00,0.0,0.0
2026-01-07 09:52:52.690000+00:00,-0.010989,-0.021978
2026-01-07 09:52:52.694000+00:00,-0.010989,-0.043956
2026-01-07 09:52:52.698000+00:00,-0.032967,-0.032967
2026-01-07 09:52:52.702000+00:00,-0.054945,-0.043956
2026-01-07 09:52:52.706000+00:00,-0.054945,-0.032967
2026-01-07 09:52:52.710000+00:00,-0.032967,-0.010989
2026-01-07 09:52:52.714000+00:00,-0.010989,-0.010989
2026-01-07 09:52:52.718000+00:00,-0.021978,-0.021978
2026-01-07 09:52:52.722000+00:00,-0.021978,-0.021978
2026-01-07 09:52:52.726000+00:00,-0.021978,-0.021978
2026-01-07 09:52:52.730000+00:00,-0.010989,-0.010989
2026-01-07 09:52:52.733000+00:00,-0.010989,-0.010989
2026-01-07 09:52:52.737000+00:00,-0.021978,-0.021978
2026-01-07 09:52:52.741000+00:00,-0.021978,-0.021978
2026-01-07 09:52:52.745000+00:00,-0.010989,-0.010989
2026-01-07 09:52:52.749000+00:00,0.0,0.043956
2026-01-07 09:52:52.753000+00:00,0.10989,0.164835
2026-01-07 09:52:52.757000+00:00,0.274725,0.32967
2026-01-07 09:52:52.761000+00:00,0.505494,0.538461
2026-01-07 09:52:52.765000+00:00,0.747252,0.736263
2026-01-07 09:52:52.769000+00:00,0.934065,0.868131
2026-01-07 09:52:52.773000+00:00,0.978021,0.835164
2026-01-07 09:52:52.776000+00:00,0.703296,0.494505
2026-01-07 09:52:52.780000+00:00,0.087912,-0.098901
2026-01-07 09:52:52.784000+00:00,-0.560439,-0.670329
2026-01-07 09:52:52.788000+00:00,-0.857142,-0.934065
2026-01-07 09:52:52.792000+00:00,-0.835164,-0.857142
2026-01-07 09:52:52.796000+00:00,-0.65934,-0.604395
2026-01-07 09:52:52.800000+00:00,-0.505494,-0.373626
2026-01-07 09:52:52.804000+00:00,-0.373626,-0.241758
2026-01-07 09:52:52.808000+00:00,-0.285714,-0.164835
2026-01-07 09:52:52.812000+00:00,-0.208791,-0.131868
2026-01-07 09:52:52.815000+00:00,-0.164835,-0.10989
2026-01-07 09:52:52.819000+00:00,-0.131868,-0.076923
2026-01-07 09:52:52.823000+00:00,-0.142857,-0.065934
2026-01-07 09:52:52.827000+00:00,-0.10989,-0.032967
2026-01-07 09:52:52.831000+00:00,-0.065934,-0.021978
2026-01-07 09:52:52.835000+00:00,-0.054945,-0.010989
2026-01-07 09:52:52.839000+00:00,-0.032967,0.010989
2026-01-07 09:52:52.843000+00:00,-0.021978,0.021978
2026-01-07 09:52:52.847000+00:00,-0.010989,0.010989
2026-01-07 09:52:52.851000+00:00,-0.021978,0.010989
2026-01-07 09:52:52.855000+00:00,-0.010989,0.021978
2026-01-07 09:52:52.858000+00:00,0.010989,0.032967
2026-01-07 09:52:52.862000+00:00,0.032967,0.043956
2026-01-07 09:52:52.866000+00:00,0.021978,0.021978
2026-01-07 09:52:52.870000+00:00,0.0,0.0
2026-01-07 09:52:52.874000+00:00,0.0,-0.010989
2026-01-07 09:52:52.878000+00:00,-0.010989,-0.010989
2026-01-07 09:52:52.882000+00:00,-0.010989,-0.021978
2026-01-07 09:52:52.886000+00:00,0.0,0.0
2026-01-07 09:52:52.890000+00:00,0.0,0.010989
2026-01-07 09:52:52.894000+00:00,0.010989,0.010989
2026-01-07 09:52:52.898000+00:00,0.032967,0.032967
2026-01-07 09:52:52.901000+00:00,0.010989,0.021978
2026-01-07 09:52:52.905000+00:00,-0.010989,0.021978
2026-01-07 09:52:52.909000+00:00,0.021978,0.043956
2026-01-07 09:52:52.913000+00:00,0.010989,0.021978
2026-01-07 09:52:52.917000+00:00,0.010989,0.021978
2026-01-07 09:52:52.921000+00:00,0.043956,0.054945
2026-01-07 09:52:52.925000+00:00,0.087912,0.098901
2026-01-07 09:52:52.929000+00:00,0.098901,0.098901
2026-01-07 09:52:52.933000+00:00,0.087912,0.087912
2026-01-07 09:52:52.937000+00:00,0.076923,0.076923
2026-01-07 09:52:52.940000+00:00,0.076923,0.076923
2026-01-07 09:52:52.944000+00:00,0.076923,0.076923
2026-01-07 09:52:52.948000+00:00,0.065934,0.076923
2026-01-07 09:52:52.952000+00:00,0.065934,0.076923
2026-01-07 09:52:52.956000+00:00,0.065934,0.076923
2026-01-07 09:52:52.960000+00:00,0.043956,0.065934
2026-01-07 09:52:52.964000+00:00,0.043956,0.054945
2026-01-07 09:52:52.968000+00:00,0.021978,0.032967
2026-01-07 09:52:52.972000+00:00,0.0,0.032967
2026-01-07 09:52:52.976000+00:00,-0.010989,0.010989
2026-01-07 09:52:52.980000+00:00,-0.010989,-0.021978
2026-01-07 09:52:52.983000+00:00,-0.032967,-0.032967
2026-01-07 09:52:52.987000+00:00,-0.054945,-0.043956
2026-01-07 09:52:52.991000+00:00,-0.054945,-0.043956
2026-01-07 09:52:52.995000+00:00,-0.043956,-0.032967
2026-01-07 09:52:52.999000+00:00,-0.043956,-0.043956
2026-01-07 09:52:53.003000+00:00,-0.054945,-0.065934
2026-01-07 09:52:53.007000+00:00,-0.087912,-0.087912
2026-01-07 09:52:53.011000+00:00,-0.087912,-0.098901
2026-01-07 09:52:53.015000+00:00,-0.10989,-0.10989
2026-01-07 09:52:53.019000+00:00,-0.120879,-0.10989
2026-01-07 09:52:53.023000+00:00,-0.10989,-0.10989
2026-01-07 09:52:53.026000+00:00,-0.10989,-0.10989
2026-01-07 09:52:53.030000+00:00,-0.10989,-0.10989
2026-01-07 09:52:53.034000+00:00,-0.10989,-0.10989
2026-01-07 09:52:53.038000+00:00,-0.087912,-0.087912
2026-01-07 09:52:53.042000+00:00,-0.054945,-0.076923
2026-01-07 09:52:53.046000+00:00,-0.054945,-0.054945
2026-01-07 09:52:53.050000+00:00,-0.032967,-0.043956
2026-01-07 09:52:53.054000+00:00,-0.043956,-0.043956
2026-01-07 09:52:53.058000+00:00,-0.043956,-0.054945
2026-01-07 09:52:53.062000+00:00,-0.065934,-0.065934
2026-01-07 09:52:53.065000+00:00,-0.043956,-0.043956
2026-01-07 09:52:53.069000+00:00,-0.021978,-0.021978
2026-01-07 09:52:53.073000+00:00,0.0,-0.010989
2026-01-07 09:52:53.077000+00:00,0.010989,0.0
2026-01-07 09:52:53.081000+00:00,0.010989,0.010989
2026-01-07 09:52:53.085000+00:00,-0.010989,0.0
2026-01-07 09:52:53.089000+00:00,-0.010989,-0.010989
2026-01-07 09:52:53.093000+00:00,0.0,-0.010989
2026-01-07 09:52:53.097000+00:00,0.010989,-0.010989
2026-01-07 09:52:53.101000+00:00,-0.010989,-0.010989
2026-01-07 09:52:53.105000+00:00,-0.021978,-0.032967
2026-01-07 09:52:53.108000+00:00,-0.021978,-0.010989
2026-01-07 09:52:53.112000+00:00,-0.010989,-0.010989
2026-01-07 09:52:53.116000+00:00,-0.021978,-0.010989
2026-01-07 09:52:53.120000+00:00,-0.010989,0.0
2026-01-07 09:52:53.124000+00:00,-0.032967,-0.021978
2026-01-07 09:52:53.128000+00:00,-0.010989,0.0
2026-01-07 09:52:53.132000+00:00,-0.010989,0.0
2026-01-07 09:52:53.136000+00:00,-0.021978,0.0
2026-01-07 09:52:53.140000+00:00,-0.021978,0.0
2026-01-07 09:52:53.144000+00:00,-0.021978,0.010989
2026-01-07 09:52:53.148000+00:00,-0.021978,0.0
2026-01-07 09:52:53.151000+00:00,-0.032967,-0.021978
2026-01-07 09:52:53.155000+00:00,-0.032967,-0.032967
2026-01-07 09:52:53.159000+00:00,-0.010989,-0.010989
2026-01-07 09:52:53.163000+00:00,-0.010989,-0.021978
2026-01-07 09:52:53.167000+00:00,0.021978,0.0
2026-01-07 09:52:53.171000+00:00,0.021978,-0.010989
2026-01-07 09:52:53.175000+00:00,-0.021978,-0.010989
2026-01-07 09:52:53.179000+00:00,-0.043956,-0.010989
2026-01-07 09:52:53.183000+00:00,-0.021978,0.0
2026-01-07 09:52:53.187000+00:00,0.0,0.0
2026-01-07 09:52:53.190000+00:00,0.0,-0.010989
2026-01-07 09:52:53.194000+00:00,-0.010989,-0.010989
2026-01-07 09:52:53.198000+00:00,-0.021978,-0.021978
2026-01-07 09:52:53.202000+00:00,0.0,0.0
2026-01-07 09:52:53.206000+00:00,0.0,0.0
2026-01-07 09:52:53.210000+00:00,-0.032967,-0.021978
2026-01-07 09:52:53.214000+00:00,-0.032967,-0.043956
2026-01-07 09:52:53.218000+00:00,-0.021978,-0.032967
2026-01-07 09:52:53.222000+00:00,-0.021978,-0.010989
2026-01-07 09:52:53.226000+00:00,-0.032967,-0.010989
2026-01-07 09:52:53.230000+00:00,0.010989,0.010989
2026-01-07 09:52:53.233000+00:00,0.0,0.0
2026-01-07 09:52:53.237000+00:00,0.010989,0.010989
2026-01-07 09:52:53.241000+00:00,0.010989,0.0
2026-01-07 09:52:53.245000+00:00,-0.010989,-0.043956
2026-01-07 09:52:53.249000+00:00,-0.010989,-0.032967
2026-01-07 09:52:53.253000+00:00,-0.021978,-0.021978
2026-01-07 09:52:53.257000+00:00,-0.010989,-0.010989
2026-01-07 09:52:53.261000+00:00,-0.021978,-0.021978
2026-01-07 09:52:53.265000+00:00,-0.021978,-0.032967
2026-01-07 09:52:53.269000+00:00,-0.010989,-0.021978
2026-01-07 09:52:53.273000+00:00,0.010989,-0.010989
2026-01-07 09:52:53.276000+00:00,0.010989,-0.010989
2026-01-07 09:52:53.280000+00:00,-0.010989,-0.010989
2026-01-07 09:52:53.284000+00:00,-0.010989,0.0
2026-01-07 09:52:53.288000+00:00,0.0,0.010989
2026-01-07 09:52:53.292000+00:00,0.0,0.0
2026-01-07 09:52:53.296000+00:00,-0.021978,-0.010989
2026-01-07 09:52:53.300000+00:00,-0.021978,-0.010989
2026-01-07 09:52:53.304000+00:00,-0.010989,-0.010989
2026-01-07 09:52:53.308000+00:00,0.010989,0.0
2026-01-07 09:52:53.312000+00:00,-0.010989,-0.021978
2026-01-07 09:52:53.315000+00:00,0.0,-0.021978
2026-01-07 09:52:53.319000+00:00,0.010989,-0.010989
2026-01-07 09:52:53.323000+00:00,0.032967,0.0
2026-01-07 09:52:53.327000+00:00,0.021978,0.0
2026-01-07 09:52:53.331000+00:00,0.032967,0.021978
2026-01-07 09:52:53.335000+00:00,0.010989,0.010989
2026-01-07 09:52:53.339000+00:00,-0.010989,-0.010989
2026-01-07 09:52:53.343000+00:00,-0.021978,-0.032967
2026-01-07 09:52:53.347000+00:00,-0.054945,-0.054945
2026-01-07 09:52:53.351000+00:00,-0.065934,-0.065934
2026-01-07 09:52:53.355000+00:00,-0.054945,-0.065934
2026-01-07 09:52:53.358000+00:00,-0.032967,-0.043956
2026-01-07 09:52:53.362000+00:00,-0.032967,-0.043956
2026-01-07 09:52:53.366000+00:00,-0.021978,-0.032967
2026-01-07 09:52:53.370000+00:00,-0.043956,-0.032967
2026-01-07 09:52:53.374000+00:00,-0.021978,-0.010989
2026-01-07 09:52:53.378000+00:00,-0.032967,-0.010989
2026-01-07 09:52:53.382000+00:00,-0.021978,-0.010989
2026-01-07 09:52:53.386000+00:00,0.0,-0.010989
2026-01-07 09:52:53.390000+00:00,-0.010989,-0.021978
2026-01-07 09:52:53.394000+00:00,-0.021978,-0.021978
2026-01-07 09:52:53.398000+00:00,-0.032967,-0.010989
2026-01-07 09:52:53.401000+00:00,-0.021978,0.010989
2026-01-07 09:52:53.405000+00:00,0.054945,0.120879
2026-01-07 09:52:53.409000+00:00,0.197802,0.252747
2026-01-07 09:52:53.413000+00:00,0.406593,0.450549
2026-01-07 09:52:53.417000+00:00,0.604395,0.626373
2026-01-07 09:52:53.421000+00:00,0.802197,0.780219
2026-01-07 09:52:53.425000+00:00,0.901098,0.802197
2026-01-07 09:52:53.429000+00:00,0.736263,0.54945
2026-01-07 09:52:53.433000+00:00,0.252747,0.032967
2026-01-07 09:52:53.437000+00:00,-0.384615,-0.538461
2026-01-07 09:52:53.440000+00:00,-0.76923,-0.868131
2026-01-07 09:52:53.444000+00:00,-0.824175,-0.846153
2026-01-07 09:52:53.448000+00:00,-0.703296,-0.65934
2026-01-07 09:52:53.452000+00:00,-0.516483,-0.406593
2026-01-07 09:52:53.456000+00:00,-0.373626,-0.252747
2026-01-07 09:52:53.460000+00:00,-0.252747,-0.153846
2026-01-07 09:52:53.464000+00:00,-0.186813,-0.098901
2026-01-07 09:52:53.468000+00:00,-0.164835,-0.076923
2026-01-07 09:52:53.472000+00:00,-0.131868,-0.065934
2026-01-07 09:52:53.476000+00:00,-0.131868,-0.076923
2026-01-07 09:52:53.480000+00:00,-0.10989,-0.065934
2026-01-07 09:52:53.483000+00:00,-0.065934,-0.021978
2026-01-07 09:52:53.487000+00:00,-0.032967,0.0
2026-01-07 09:52:53.491000+00:00,-0.021978,0.0
2026-01-07 09:52:53.495000+00:00,-0.021978,-0.010989
2026-01-07 09:52:53.499000+00:00,-0.032967,-0.021978
2026-01-07 09:52:53.503000+00:00,-0.021978,0.0
2026-01-07 09:52:53.507000+00:00,-0.021978,0.0
2026-01-07 09:52:53.511000+00:00,-0.010989,-0.010989
2026-01-07 09:52:53.515000+00:00,0.0,0.010989
2026-01-07 09:52:53.519000+00:00,-0.010989,0.0
2026-01-07 09:52:53.523000+00:00,0.0,0.0
2026-01-07 09:52:53.526000+00:00,0.0,-0.010989
2026-01-07 09:52:53.530000+00:00,-0.021978,-0.010989
2026-01-07 09:52:53.534000+00:00,-0.032967,-0.032967
2026-01-07 09:52:53.538000+00:00,0.010989,0.010989
2026-01-07 09:52:53.542000+00:00,0.032967,0.054945
2026-01-07 09:52:53.546000+00:00,0.032967,0.054945
2026-01-07 09:52:53.550000+00:00,0.032967,0.043956
2026-01-07 09:52:53.554000+00:00,0.021978,0.043956
2026-01-07 09:52:53.558000+00:00,0.021978,0.032967
2026-01-07 09:52:53.562000+00:00,0.032967,0.032967
2026-01-07 09:52:53.565000+00:00,0.043956,0.043956
2026-01-07 09:52:53.569000+00:00,0.054945,0.032967
2026-01-07 09:52:53.573000+00:00,0.043956,0.032967
2026-01-07 09:52:53.577000+00:00,0.043956,0.054945
2026-01-07 09:52:53.581000+00:00,0.043956,0.043956
2026-01-07 09:52:53.585000+00:00,0.043956,0.032967
2026-01-07 09:52:53.589000+00:00,0.032967,0.021978
2026-01-07 09:52:53.593000+00:00,0.043956,0.043956
2026-01-07 09:52:53.597000+00:00,0.076923,0.087912
2026-01-07 09:52:53.601000+00:00,0.087912,0.098901
2026-01-07 09:52:53.605000+00:00,0.087912,0.076923
2026-01-07 09:52:53.608000+00:00,0.076923,0.076923
2026-01-07 09:52:53.612000+00:00,0.054945,0.054945
2026-01-07 09:52:53.616000+00:00,0.043956,0.054945
2026-01-07 09:52:53.620000+00:00,0.054945,0.054945
2026-01-07 09:52:53.624000+00:00,0.032967,0.032967
2026-01-07 09:52:53.628000+00:00,0.010989,0.010989
2026-01-07 09:52:53.632000+00:00,-0.010989,-0.010989
2026-01-07 09:52:53.636000+00:00,-0.032967,-0.032967
2026-01-07 09:52:53.640000+00:00,-0.043956,-0.043956
2026-01-07 09:52:53.644000+00:00,-0.043956,-0.054945
2026-01-07 09:52:53.648000+00:00,-0.043956,-0.054945
2026-01-07 09:52:53.651000+00:00,-0.032967,-0.054945
2026-01-07 09:52:53.655000+00:00,-0.065934,-0.076923
2026-01-07 09:52:53.659000+00:00,-0.098901,-0.098901
2026-01-07 09:52:53.663000+00:00,-0.10989,-0.120879
2026-01-07 09:52:53.667000+00:00,-0.131868,-0.131868
2026-01-07 09:52:53.671000+00:00,-0.131868,-0.153846
2026-01-07 09:52:53.675000+00:00,-0.10989,-0.131868
2026-01-07 09:52:53.679000+00:00,-0.076923,-0.098901
2026-01-07 09:52:53.683000+00:00,-0.087912,-0.10989
2026-01-07 09:52:53.687000+00:00,-0.076923,-0.10989
2026-01-07 09:52:53.690000+00:00,-0.087912,-0.10989
2026-01-07 09:52:53.694000+00:00,-0.098901,-0.098901
2026-01-07 09:52:53.698000+00:00,-0.054945,-0.076923
2026-01-07 09:52:53.702000+00:00,-0.043956,-0.076923
2026-01-07 09:52:53.706000+00:00,-0.065934,-0.076923
2026-01-07 09:52:53.710000+00:00,-0.054945,-0.065934
2026-01-07 09:52:53.714000+00:00,-0.043956,-0.054945
2026-01-07 09:52:53.718000+00:00,-0.054945,-0.065934
2026-01-07 09:52:53.722000+00:00,-0.032967,-0.054945
2026-01-07 09:52:53.726000+00:00,-0.032967,-0.032967
2026-01-07 09:52:53.730000+00:00,-0.032967,-0.043956
2026-01-07 09:52:53.733000+00:00,-0.021978,-0.043956
2026-01-07 09:52:53.737000+00:00,-0.021978,-0.032967
2026-01-07 09:52:53.741000+00:00,-0.032967,-0.043956
2026-01-07 09:52:53.745000+00:00,-0.032967,-0.054945
2026-01-07 09:52:53.749000+00:00,-0.032967,-0.032967
2026-01-07 09:52:53.753000+00:00,0.0,0.010989
2026-01-07 09:52:53.757000+00:00,0.0,0.0
2026-01-07 09:52:53.761000+00:00,0.0,-0.010989
2026-01-07 09:52:53.765000+00:00,-0.010989,-0.021978
2026-01-07 09:52:53.769000+00:00,-0.032967,-0.043956
2026-01-07 09:52:53.773000+00:00,-0.032967,-0.021978
2026-01-07 09:52:53.776000+00:00,-0.032967,-0.021978
2026-01-07 09:52:53.780000+00:00,-0.010989,-0.010989
2026-01-07 09:52:53.784000+00:00,-0.021978,-0.010989
2026-01-07 09:52:53.788000+00:00,-0.032967,-0.010989
2026-01-07 09:52:53.792000+00:00,-0.032967,-0.010989
2026-01-07 09:52:53.796000+00:00,-0.021978,-0.010989
2026-01-07 09:52:53.800000+00:00,-0.032967,-0.032967
2026-01-07 09:52:53.804000+00:00,-0.032967,-0.043956
2026-01-07 09:52:53.808000+00:00,-0.032967,-0.043956
2026-01-07 09:52:53.812000+00:00,-0.032967,-0.043956
2026-01-07 09:52:53.815000+00:00,-0.021978,-0.021978
2026-01-07 09:52:53.819000+00:00,-0.010989,-0.010989
2026-01-07 09:52:53.823000+00:00,-0.021978,-0.021978
2026-01-07 09:52:53.827000+00:00,-0.043956,-0.043956
2026-01-07 09:52:53.831000+00:00,-0.054945,-0.043956
2026-01-07 09:52:53.835000+00:00,-0.021978,-0.021978
2026-01-07 09:52:53.839000+00:00,0.0,-0.010989
2026-01-07 09:52:53.843000+00:00,0.0,-0.010989
2026-01-07 09:52:53.847000+00:00,-0.010989,-0.021978
2026-01-07 09:52:53.851000+00:00,-0.032967,-0.032967
2026-01-07 09:52:53.855000+00:00,-0.032967,-0.032967
2026-01-07 09:52:53.858000+00:00,-0.010989,-0.021978
2026-01-07 09:52:53.862000+00:00,0.0,-0.021978
2026-01-07 09:52:53.866000+00:00,-0.021978,-0.021978
2026-01-07 09:52:53.870000+00:00,-0.043956,-0.021978
2026-01-07 09:52:53.874000+00:00,-0.043956,-0.021978
2026-01-07 09:52:53.878000+00:00,-0.021978,-0.032967
2026-01-07 09:52:53.882000+00:00,-0.021978,-0.032967
2026-01-07 09:52:53.886000+00:00,-0.032967,-0.043956
2026-01-07 09:52:53.890000+00:00,-0.032967,-0.043956
2026-01-07 09:52:53.894000+00:00,-0.021978,-0.021978
2026-01-07 09:52:53.898000+00:00,-0.032967,-0.043956
2026-01-07 09:52:53.901000+00:00,-0.043956,-0.043956
2026-01-07 09:52:53.905000+00:00,-0.043956,-0.043956
2026-01-07 09:52:53.909000+00:00,-0.021978,-0.021978
2026-01-07 09:52:53.913000+00:00,-0.021978,-0.021978
2026-01-07 09:52:53.917000+00:00,-0.021978,-0.032967
2026-01-07 09:52:53.921000+00:00,-0.010989,-0.021978
2026-01-07 09:52:53.925000+00:00,-0.032967,-0.032967
2026-01-07 09:52:53.929000+00:00,-0.021978,-0.010989
2026-01-07 09:52:53.933000+00:00,-0.010989,0.0
2026-01-07 09:52:53.937000+00:00,-0.010989,0.0
2026-01-07 09:52:53.940000+00:00,-0.032967,0.0
2026-01-07 09:52:53.944000+00:00,-0.043956,-0.021978
2026-01-07 09:52:53.948000+00:00,-0.043956,-0.032967
2026-01-07 09:52:53.952000+00:00,-0.032967,-0.021978
2026-01-07 09:52:53.956000+00:00,-0.021978,0.0
2026-01-07 09:52:53.960000+00:00,0.0,0.021978
2026-01-07 09:52:53.964000+00:00,0.0,0.010989
2026-01-07 09:52:53.968000+00:00,-0.010989,-0.010989
2026-01-07 09:52:53.972000+00:00,-0.021978,-0.032967
2026-01-07 09:52:53.976000+00:00,-0.010989,-0.032967
2026-01-07 09:52:53.980000+00:00,0.0,-0.010989
2026-01-07 09:52:53.983000+00:00,0.021978,0.0
2026-01-07 09:52:53.987000+00:00,0.021978,0.010989
2026-01-07 09:52:53.991000+00:00,0.010989,0.010989
2026-01-07 09:52:53.995000+00:00,-0.010989,-0.010989
2026-01-07 09:52:53.999000+00:00,-0.043956,-0.043956
2026-01-07 09:52:54.003000+00:00,-0.054945,-0.054945
2026-01-07 09:52:54.007000+00:00,-0.076923,-0.065934
2026-01-07 09:52:54.011000+00:00,-0.065934,-0.076923
2026-01-07 09:52:54.015000+00:00,-0.054945,-0.065934
2026-01-07 09:52:54.019000+00:00,-0.054945,-0.054945
2026-01-07 09:52:54.023000+00:00,-0.043956,-0.043956
2026-01-07 09:52:54.026000+00:00,-0.021978,-0.021978
2026-01-07 09:52:54.030000+00:00,-0.021978,-0.032967
2026-01-07 09:52:54.034000+00:00,-0.032967,-0.010989
2026-01-07 09:52:54.038000+00:00,-0.032967,-0.010989
2026-01-07 09:52:54.042000+00:00,-0.032967,0.0
2026-01-07 09:52:54.046000+00:00,-0.021978,0.0
2026-01-07 09:52:54.050000+00:00,-0.021978,0.010989
2026-01-07 09:52:54.054000+00:00,-0.054945,-0.021978
2026-01-07 09:52:54.058000+00:00,-0.087912,-0.043956
2026-01-07 09:52:54.062000+00:00,-0.032967,0.010989
2026-01-07 09:52:54.065000+00:00,0.142857,0.175824
2026-01-07 09:52:54.069000+00:00,0.318681,0.362637
2026-01-07 09:52:54.073000+00:00,0.527472,0.54945
2026-01-07 09:52:54.077000+00:00,0.736263,0.725274
2026-01-07 09:52:54.081000+00:00,0.87912,0.802197
2026-01-07 09:52:54.085000+00:00,0.802197,0.648351
2026-01-07 09:52:54.089000+00:00,0.450549,0.241758
2026-01-07 09:52:54.093000+00:00,-0.153846,-0.351648
2026-01-07 09:52:54.097000+00:00,-0.65934,-0.791208
2026-01-07 09:52:54.101000+00:00,-0.802197,-0.890109
2026-01-07 09:52:54.105000+00:00,-0.725274,-0.747252
2026-01-07 09:52:54.108000+00:00,-0.560439,-0.516483
2026-01-07 09:52:54.112000+00:00,-0.417582,-0.318681
2026-01-07 09:52:54.116000+00:00,-0.318681,-0.208791
2026-01-07 09:52:54.120000+00:00,-0.263736,-0.153846
2026-01-07 09:52:54.124000+00:00,-0.197802,-0.10989
2026-01-07 09:52:54.128000+00:00,-0.142857,-0.087912
2026-01-07 09:52:54.132000+00:00,-0.131868,-0.098901
2026-01-07 09:52:54.136000+00:00,-0.10989,-0.076923
2026-01-07 09:52:54.140000+00:00,-0.054945,-0.043956
2026-01-07 09:52:54.144000+00:00,-0.043956,-0.032967
2026-01-07 09:52:54.148000+00:00,-0.043956,-0.043956
2026-01-07 09:52:54.151000+00:00,-0.032967,-0.032967
2026-01-07 09:52:54.155000+00:00,-0.010989,0.0
