DateTime,Lead 1,Lead 2
2026-01-07 12:57:00.003000+00:00,0.021978,0.043956
2026-01-07 12:57:00.007000+00:00,0.032967,0.043956
2026-01-07 12:57:00.011000+00:00,0.043956,0.043956
2026-01-07 12:57:00.015000+00:00,0.043956,0.032967
2026-01-07 12:57:00.019000+00:00,0.032967,0.021978
2026-01-07 12:57:00.023000+00:00,0.032967,0.032967
2026-01-07 12:57:00.027000+00:00,0.032967,0.032967
2026-01-07 12:57:00.031000+00:00,0.032967,0.032967
2026-01-07 12:57:00.035000+00:00,0.032967,0.032967
2026-01-07 12:57:00.038000+00:00,0.032967,0.032967
2026-01-07 12:57:00.042000+00:00,0.032967,0.043956
2026-01-07 12:57:00.046000+00:00,0.032967,0.043956
2026-01-07 12:57:00.050000+00:00,0.032967,0.032967
2026-01-07 12:57:00.054000+00:00,0.032967,0.032967
2026-01-07 12:57:00.058000+00:00,0.043956,0.043956
2026-01-07 12:57:00.062000+00:00,0.032967,0.032967
2026-01-07 12:57:00.066000+00:00,0.032967,0.032967
2026-01-07 12:57:00.070000+00:00,0.043956,0.032967
2026-01-07 12:57:00.074000+00:00,0.043956,0.032967
2026-01-07 12:57:00.078000+00:00,0.032967,0.032967
2026-01-07 12:57:00.081000+00:00,0.032967,0.043956
2026-01-07 12:57:00.085000+00:00,0.032967,0.043956
2026-01-07 12:57:00.089000+00:00,0.043956,0.032967
2026-01-07 12:57:00.093000+00:00,0.032967,0.032967
2026-01-07 12:57:00.097000+00:00,0.032967,0.032967
2026-01-07 12:57:00.101000+00:00,0.032967,0.043956
2026-01-07 12:57:00.105000+00:00,0.032967,0.043956
2026-01-07 12:57:00.109000+00:00,0.032967,0.032967
2026-01-07 12:57:00.113000+00:00,0.032967,0.043956
2026-01-07 12:57:00.117000+00:00,0.032967,0.043956
2026-01-07 12:57:00.120000+00:00,0.032967,0.043956
2026-01-07 12:57:00.124000+00:00,0.021978,0.043956
2026-01-07 12:57:00.128000+00:00,0.021978,0.043956
2026-01-07 12:57:00.132000+00:00,0.021978,0.043956
2026-01-07 12:57:00.136000+00:00,0.021978,0.043956
2026-01-07 12:57:00.140000+00:00,0.032967,0.043956
2026-01-07 12:57:00.144000+00:00,0.032967,0.043956
2026-01-07 12:57:00.148000+00:00,0.043956,0.032967
2026-01-07 12:57:00.152000+00:00,0.065934,0.043956
2026-01-07 12:57:00.156000+00:00,0.054945,0.043956
2026-01-07 12:57:00.160000+00:00,0.054945,0.043956
2026-01-07 12:57:00.163000+00:00,0.054945,0.043956
2026-01-07 12:57:00.167000+00:00,0.043956,0.032967
2026-01-07 12:57:00.171000+00:00,0.043956,0.032967
2026-01-07 12:57:00.175000+00:00,0.021978,0.021978
2026-01-07 12:57:00.179000+00:00,0.010989,0.021978
2026-01-07 12:57:00.183000+00:00,0.010989,0.021978
2026-01-07 12:57:00.187000+00:00,0.010989,0.010989
2026-01-07 12:57:00.191000+00:00,0.021978,0.010989
2026-01-07 12:57:00.195000+00:00,0.021978,0.021978
2026-01-07 12:57:00.199000+00:00,0.021978,0.032967
2026-01-07 12:57:00.203000+00:00,0.021978,0.021978
2026-01-07 12:57:00.206000+00:00,0.021978,0.032967
2026-01-07 12:57:00.210000+00:00,0.010989,0.021978
2026-01-07 12:57:00.214000+00:00,0.021978,0.032967
2026-01-07 12:57:00.218000+00:00,0.010989,0.032967
2026-01-07 12:57:00.222000+00:00,0.032967,0.032967
2026-01-07 12:57:00.226000+00:00,0.032967,0.032967
2026-01-07 12:57:00.230000+00:00,0.021978,0.032967
2026-01-07 12:57:00.234000+00:00,0.021978,0.043956
2026-01-07 12:57:00.238000+00:00,0.032967,0.032967
2026-01-07 12:57:00.242000+00:00,0.032967,0.032967
2026-01-07 12:57:00.245000+00:00,0.032967,0.032967
2026-01-07 12:57:00.249000+00:00,0.021978,0.043956
2026-01-07 12:57:00.253000+00:00,-0.010989,0.021978
2026-01-07 12:57:00.257000+00:00,-0.043956,0.0
2026-01-07 12:57:00.261000+00:00,-0.054945,0.010989
2026-01-07 12:57:00.265000+00:00,-0.010989,0.065934
2026-01-07 12:57:00.269000+00:00,0.10989,0.186813
2026-01-07 12:57:00.273000+00:00,0.307692,0.362637
2026-01-07 12:57:00.277000+00:00,0.483516,0.516483
2026-01-07 12:57:00.281000+00:00,0.65934,0.648351
2026-01-07 12:57:00.285000+00:00,0.76923,0.703296
2026-01-07 12:57:00.288000+00:00,0.802197,0.692307
2026-01-07 12:57:00.292000+00:00,0.692307,0.527472
2026-01-07 12:57:00.296000+00:00,0.384615,0.164835
2026-01-07 12:57:00.300000+00:00,-0.10989,-0.285714
2026-01-07 12:57:00.304000+00:00,-0.494505,-0.582417
2026-01-07 12:57:00.308000+00:00,-0.714285,-0.747252
2026-01-07 12:57:00.312000+00:00,-0.681318,-0.65934
2026-01-07 12:57:00.316000+00:00,-0.527472,-0.461538
2026-01-07 12:57:00.320000+00:00,-0.362637,-0.296703
2026-01-07 12:57:00.324000+00:00,-0.252747,-0.164835
2026-01-07 12:57:00.328000+00:00,-0.164835,-0.065934
2026-01-07 12:57:00.331000+00:00,-0.10989,-0.021978
2026-01-07 12:57:00.335000+00:00,-0.076923,0.0
2026-01-07 12:57:00.339000+00:00,-0.054945,0.0
2026-01-07 12:57:00.343000+00:00,-0.032967,0.010989
2026-01-07 12:57:00.347000+00:00,-0.021978,0.021978
2026-01-07 12:57:00.351000+00:00,-0.010989,0.021978
2026-01-07 12:57:00.355000+00:00,0.0,0.032967
2026-01-07 12:57:00.359000+00:00,0.010989,0.043956
2026-01-07 12:57:00.363000+00:00,0.021978,0.043956
2026-01-07 12:57:00.367000+00:00,0.010989,0.032967
2026-01-07 12:57:00.370000+00:00,0.021978,0.032967
2026-01-07 12:57:00.374000+00:00,0.021978,0.043956
2026-01-07 12:57:00.378000+00:00,0.021978,0.043956
2026-01-07 12:57:00.382000+00:00,0.032967,0.043956
2026-01-07 12:57:00.386000+00:00,0.032967,0.043956
2026-01-07 12:57:00.390000+00:00,0.032967,0.032967
2026-01-07 12:57:00.394000+00:00,0.032967,0.043956
2026-01-07 12:57:00.398000+00:00,0.032967,0.043956
2026-01-07 12:57:00.402000+00:00,0.043956,0.043956
2026-01-07 12:57:00.406000+00:00,0.043956,0.043956
2026-01-07 12:57:00.410000+00:00,0.032967,0.043956
2026-01-07 12:57:00.413000+00:00,0.032967,0.043956
2026-01-07 12:57:00.417000+00:00,0.032967,0.043956
2026-01-07 12:57:00.421000+00:00,0.021978,0.043956
2026-01-07 12:57:00.425000+00:00,0.021978,0.032967
2026-01-07 12:57:00.429000+00:00,0.021978,0.043956
2026-01-07 12:57:00.433000+00:00,0.021978,0.043956
2026-01-07 12:57:00.437000+00:00,0.032967,0.043956
2026-01-07 12:57:00.441000+00:00,0.032967,0.054945
2026-01-07 12:57:00.445000+00:00,0.043956,0.043956
2026-01-07 12:57:00.449000+00:00,0.043956,0.043956
2026-01-07 12:57:00.453000+00:00,0.043956,0.054945
2026-01-07 12:57:00.456000+00:00,0.054945,0.054945
2026-01-07 12:57:00.460000+00:00,0.065934,0.065934
2026-01-07 12:57:00.464000+00:00,0.065934,0.065934
2026-01-07 12:57:00.468000+00:00,0.065934,0.065934
2026-01-07 12:57:00.472000+00:00,0.065934,0.065934
2026-01-07 12:57:00.476000+00:00,0.065934,0.076923
2026-01-07 12:57:00.480000+00:00,0.054945,0.076923
2026-01-07 12:57:00.484000+00:00,0.054945,0.065934
2026-01-07 12:57:00.488000+00:00,0.054945,0.065934
2026-01-07 12:57:00.492000+00:00,0.065934,0.065934
2026-01-07 12:57:00.495000+00:00,0.065934,0.065934
2026-01-07 12:57:00.499000+00:00,0.076923,0.065934
2026-01-07 12:57:00.503000+00:00,0.054945,0.054945
2026-01-07 12:57:00.507000+00:00,0.032967,0.043956
2026-01-07 12:57:00.511000+00:00,0.032967,0.043956
2026-01-07 12:57:00.515000+00:00,0.021978,0.043956
2026-01-07 12:57:00.519000+00:00,0.021978,0.043956
2026-01-07 12:57:00.523000+00:00,0.021978,0.032967
2026-01-07 12:57:00.527000+00:00,0.021978,0.010989
2026-01-07 12:57:00.531000+00:00,0.0,0.010989
2026-01-07 12:57:00.535000+00:00,-0.010989,0.0
2026-01-07 12:57:00.538000+00:00,-0.021978,-0.010989
2026-01-07 12:57:00.542000+00:00,-0.043956,-0.021978
2026-01-07 12:57:00.546000+00:00,-0.043956,-0.032967
2026-01-07 12:57:00.550000+00:00,-0.032967,-0.021978
2026-01-07 12:57:00.554000+00:00,-0.043956,-0.032967
2026-01-07 12:57:00.558000+00:00,-0.032967,-0.032967
2026-01-07 12:57:00.562000+00:00,-0.021978,-0.032967
2026-01-07 12:57:00.566000+00:00,-0.032967,-0.032967
2026-01-07 12:57:00.570000+00:00,-0.032967,-0.032967
2026-01-07 12:57:00.574000+00:00,-0.032967,-0.021978
2026-01-07 12:57:00.578000+00:00,-0.043956,-0.021978
2026-01-07 12:57:00.581000+00:00,-0.032967,-0.021978
2026-01-07 12:57:00.585000+00:00,-0.010989,-0.010989
2026-01-07 12:57:00.589000+00:00,-0.010989,-0.010989
2026-01-07 12:57:00.593000+00:00,0.0,0.0
2026-01-07 12:57:00.597000+00:00,0.0,0.010989
2026-01-07 12:57:00.601000+00:00,0.010989,0.010989
2026-01-07 12:57:00.605000+00:00,0.010989,0.0
2026-01-07 12:57:00.609000+00:00,0.010989,0.010989
2026-01-07 12:57:00.613000+00:00,0.021978,0.021978
2026-01-07 12:57:00.617000+00:00,0.021978,0.021978
2026-01-07 12:57:00.620000+00:00,0.021978,0.021978
2026-01-07 12:57:00.624000+00:00,0.021978,0.021978
2026-01-07 12:57:00.628000+00:00,0.010989,0.021978
2026-01-07 12:57:00.632000+00:00,0.021978,0.032967
2026-01-07 12:57:00.636000+00:00,0.032967,0.043956
2026-01-07 12:57:00.640000+00:00,0.032967,0.043956
2026-01-07 12:57:00.644000+00:00,0.043956,0.043956
2026-01-07 12:57:00.648000+00:00,0.032967,0.043956
2026-01-07 12:57:00.652000+00:00,0.032967,0.043956
2026-01-07 12:57:00.656000+00:00,0.021978,0.043956
2026-01-07 12:57:00.660000+00:00,0.021978,0.032967
2026-01-07 12:57:00.663000+00:00,0.032967,0.032967
2026-01-07 12:57:00.667000+00:00,0.032967,0.032967
2026-01-07 12:57:00.671000+00:00,0.043956,0.043956
2026-01-07 12:57:00.675000+00:00,0.032967,0.043956
2026-01-07 12:57:00.679000+00:00,0.043956,0.043956
2026-01-07 12:57:00.683000+00:00,0.043956,0.043956
2026-01-07 12:57:00.687000+00:00,0.021978,0.043956
2026-01-07 12:57:00.691000+00:00,0.021978,0.032967
2026-01-07 12:57:00.695000+00:00,0.032967,0.021978
2026-01-07 12:57:00.699000+00:00,0.021978,0.032967
2026-01-07 12:57:00.703000+00:00,0.032967,0.032967
2026-01-07 12:57:00.706000+00:00,0.032967,0.032967
2026-01-07 12:57:00.710000+00:00,0.032967,0.032967
2026-01-07 12:57:00.714000+00:00,0.032967,0.032967
2026-01-07 12:57:00.718000+00:00,0.032967,0.032967
2026-01-07 12:57:00.722000+00:00,0.032967,0.032967
2026-01-07 12:57:00.726000+00:00,0.021978,0.032967
2026-01-07 12:57:00.730000+00:00,0.021978,0.032967
2026-01-07 12:57:00.734000+00:00,0.021978,0.021978
2026-01-07 12:57:00.738000+00:00,0.010989,0.032967
2026-01-07 12:57:00.742000+00:00,0.010989,0.021978
2026-01-07 12:57:00.745000+00:00,0.021978,0.021978
2026-01-07 12:57:00.749000+00:00,0.032967,0.032967
2026-01-07 12:57:00.753000+00:00,0.032967,0.032967
2026-01-07 12:57:00.757000+00:00,0.032967,0.032967
2026-01-07 12:57:00.761000+00:00,0.021978,0.021978
2026-01-07 12:57:00.765000+00:00,0.021978,0.021978
2026-01-07 12:57:00.769000+00:00,0.021978,0.043956
2026-01-07 12:57:00.773000+00:00,0.032967,0.043956
2026-01-07 12:57:00.777000+00:00,0.032967,0.032967
2026-01-07 12:57:00.781000+00:00,0.010989,0.032967
2026-01-07 12:57:00.785000+00:00,0.021978,0.032967
2026-01-07 12:57:00.788000+00:00,0.010989,0.032967
2026-01-07 12:57:00.792000+00:00,0.021978,0.032967
2026-01-07 12:57:00.796000+00:00,0.021978,0.032967
2026-01-07 12:57:00.800000+00:00,0.032967,0.032967
2026-01-07 12:57:00.804000+00:00,0.032967,0.032967
2026-01-07 12:57:00.808000+00:00,0.021978,0.021978
2026-01-07 12:57:00.812000+00:00,0.021978,0.021978
2026-01-07 12:57:00.816000+00:00,0.021978,0.021978
2026-01-07 12:57:00.820000+00:00,0.032967,0.032967
2026-01-07 12:57:00.824000+00:00,0.032967,0.032967
2026-01-07 12:57:00.828000+00:00,0.021978,0.021978
2026-01-07 12:57:00.831000+00:00,0.021978,0.021978
2026-01-07 12:57:00.835000+00:00,0.032967,0.032967
2026-01-07 12:57:00.839000+00:00,0.032967,0.032967
2026-01-07 12:57:00.843000+00:00,0.021978,0.032967
2026-01-07 12:57:00.847000+00:00,0.021978,0.032967
2026-01-07 12:57:00.851000+00:00,0.021978,0.032967
2026-01-07 12:57:00.855000+00:00,0.021978,0.032967
2026-01-07 12:57:00.859000+00:00,0.021978,0.032967
2026-01-07 12:57:00.863000+00:00,0.021978,0.032967
2026-01-07 12:57:00.867000+00:00,0.021978,0.032967
2026-01-07 12:57:00.870000+00:00,0.021978,0.043956
2026-01-07 12:57:00.874000+00:00,0.021978,0.032967
2026-01-07 12:57:00.878000+00:00,0.021978,0.032967
2026-01-07 12:57:00.882000+00:00,0.021978,0.021978
2026-01-07 12:57:00.886000+00:00,0.021978,0.032967
2026-01-07 12:57:00.890000+00:00,0.032967,0.032967
2026-01-07 12:57:00.894000+00:00,0.021978,0.032967
2026-01-07 12:57:00.898000+00:00,0.021978,0.043956
2026-01-07 12:57:00.902000+00:00,0.021978,0.043956
2026-01-07 12:57:00.906000+00:00,0.021978,0.032967
2026-01-07 12:57:00.910000+00:00,0.021978,0.032967
2026-01-07 12:57:00.913000+00:00,0.021978,0.032967
2026-01-07 12:57:00.917000+00:00,0.032967,0.032967
2026-01-07 12:57:00.921000+00:00,0.032967,0.032967
2026-01-07 12:57:00.925000+00:00,0.032967,0.032967
2026-01-07 12:57:00.929000+00:00,0.032967,0.032967
2026-01-07 12:57:00.933000+00:00,0.032967,0.043956
2026-01-07 12:57:00.937000+00:00,0.032967,0.032967
2026-01-07 12:57:00.941000+00:00,0.021978,0.021978
2026-01-07 12:57:00.945000+00:00,0.021978,0.032967
2026-01-07 12:57:00.949000+00:00,0.032967,0.021978
2026-01-07 12:57:00.953000+00:00,0.043956,0.032967
2026-01-07 12:57:00.956000+00:00,0.032967,0.043956
2026-01-07 12:57:00.960000+00:00,0.021978,0.043956
2026-01-07 12:57:00.964000+00:00,0.021978,0.043956
2026-01-07 12:57:00.968000+00:00,0.021978,0.043956
2026-01-07 12:57:00.972000+00:00,0.021978,0.043956
2026-01-07 12:57:00.976000+00:00,0.032967,0.043956
2026-01-07 12:57:00.980000+00:00,0.032967,0.043956
2026-01-07 12:57:00.984000+00:00,0.021978,0.032967
2026-01-07 12:57:00.988000+00:00,0.021978,0.043956
2026-01-07 12:57:00.992000+00:00,0.021978,0.043956
2026-01-07 12:57:00.995000+00:00,0.021978,0.032967
2026-01-07 12:57:00.999000+00:00,0.032967,0.032967
2026-01-07 12:57:01.003000+00:00,0.043956,0.032967
2026-01-07 12:57:01.007000+00:00,0.054945,0.043956
2026-01-07 12:57:01.011000+00:00,0.054945,0.054945
2026-01-07 12:57:01.015000+00:00,0.043956,0.043956
2026-01-07 12:57:01.019000+00:00,0.032967,0.043956
2026-01-07 12:57:01.023000+00:00,0.032967,0.032967
2026-01-07 12:57:01.027000+00:00,0.032967,0.032967
2026-01-07 12:57:01.031000+00:00,0.032967,0.032967
2026-01-07 12:57:01.035000+00:00,0.010989,0.032967
2026-01-07 12:57:01.038000+00:00,0.021978,0.010989
2026-01-07 12:57:01.042000+00:00,0.021978,0.010989
2026-01-07 12:57:01.046000+00:00,0.021978,0.010989
2026-01-07 12:57:01.050000+00:00,0.010989,0.010989
2026-01-07 12:57:01.054000+00:00,0.010989,0.010989
2026-01-07 12:57:01.058000+00:00,0.021978,0.021978
2026-01-07 12:57:01.062000+00:00,0.021978,0.021978
2026-01-07 12:57:01.066000+00:00,0.021978,0.032967
2026-01-07 12:57:01.070000+00:00,0.021978,0.032967
2026-01-07 12:57:01.074000+00:00,0.021978,0.032967
2026-01-07 12:57:01.078000+00:00,0.021978,0.032967
2026-01-07 12:57:01.081000+00:00,0.021978,0.032967
2026-01-07 12:57:01.085000+00:00,0.032967,0.021978
2026-01-07 12:57:01.089000+00:00,0.032967,0.032967
2026-01-07 12:57:01.093000+00:00,0.032967,0.032967
2026-01-07 12:57:01.097000+00:00,0.021978,0.032967
2026-01-07 12:57:01.101000+00:00,0.010989,0.032967
2026-01-07 12:57:01.105000+00:00,0.010989,0.032967
2026-01-07 12:57:01.109000+00:00,0.010989,0.021978
2026-01-07 12:57:01.113000+00:00,-0.021978,0.010989
2026-01-07 12:57:01.117000+00:00,-0.043956,0.0
2026-01-07 12:57:01.120000+00:00,-0.032967,0.043956
2026-01-07 12:57:01.124000+00:00,0.087912,0.142857
2026-01-07 12:57:01.128000+00:00,0.252747,0.307692
2026-01-07 12:57:01.132000+00:00,0.43956,0.472527
2026-01-07 12:57:01.136000+00:00,0.593406,0.604395
2026-01-07 12:57:01.140000+00:00,0.703296,0.670329
2026-01-07 12:57:01.144000+00:00,0.736263,0.648351
2026-01-07 12:57:01.148000+00:00,0.670329,0.538461
2026-01-07 12:57:01.152000+00:00,0.43956,0.263736
2026-01-07 12:57:01.156000+00:00,-0.010989,-0.175824
2026-01-07 12:57:01.160000+00:00,-0.395604,-0.505494
2026-01-07 12:57:01.163000+00:00,-0.637362,-0.681318
2026-01-07 12:57:01.167000+00:00,-0.648351,-0.648351
2026-01-07 12:57:01.171000+00:00,-0.527472,-0.494505
2026-01-07 12:57:01.175000+00:00,-0.373626,-0.32967
2026-01-07 12:57:01.179000+00:00,-0.252747,-0.186813
2026-01-07 12:57:01.183000+00:00,-0.164835,-0.087912
2026-01-07 12:57:01.187000+00:00,-0.10989,-0.032967
2026-01-07 12:57:01.191000+00:00,-0.076923,0.0
2026-01-07 12:57:01.195000+00:00,-0.054945,0.010989
2026-01-07 12:57:01.199000+00:00,-0.043956,0.010989
2026-01-07 12:57:01.203000+00:00,-0.021978,0.010989
2026-01-07 12:57:01.206000+00:00,-0.010989,0.021978
2026-01-07 12:57:01.210000+00:00,0.0,0.032967
2026-01-07 12:57:01.214000+00:00,0.010989,0.032967
2026-01-07 12:57:01.218000+00:00,0.010989,0.032967
2026-01-07 12:57:01.222000+00:00,0.021978,0.032967
2026-01-07 12:57:01.226000+00:00,0.021978,0.043956
2026-01-07 12:57:01.230000+00:00,0.032967,0.043956
2026-01-07 12:57:01.234000+00:00,0.032967,0.043956
2026-01-07 12:57:01.238000+00:00,0.032967,0.043956
2026-01-07 12:57:01.242000+00:00,0.032967,0.043956
2026-01-07 12:57:01.245000+00:00,0.032967,0.043956
2026-01-07 12:57:01.249000+00:00,0.032967,0.032967
2026-01-07 12:57:01.253000+00:00,0.043956,0.043956
2026-01-07 12:57:01.257000+00:00,0.043956,0.054945
2026-01-07 12:57:01.261000+00:00,0.043956,0.043956
2026-01-07 12:57:01.265000+00:00,0.043956,0.043956
2026-01-07 12:57:01.269000+00:00,0.043956,0.043956
2026-01-07 12:57:01.273000+00:00,0.032967,0.043956
2026-01-07 12:57:01.277000+00:00,0.032967,0.032967
2026-01-07 12:57:01.281000+00:00,0.043956,0.043956
2026-01-07 12:57:01.285000+00:00,0.043956,0.054945
2026-01-07 12:57:01.288000+00:00,0.043956,0.043956
2026-01-07 12:57:01.292000+00:00,0.043956,0.043956
2026-01-07 12:57:01.296000+00:00,0.043956,0.043956
2026-01-07 12:57:01.300000+00:00,0.032967,0.043956
2026-01-07 12:57:01.304000+00:00,0.032967,0.043956
2026-01-07 12:57:01.308000+00:00,0.043956,0.054945
2026-01-07 12:57:01.312000+00:00,0.054945,0.065934
2026-01-07 12:57:01.316000+00:00,0.054945,0.054945
2026-01-07 12:57:01.320000+00:00,0.054945,0.065934
2026-01-07 12:57:01.324000+00:00,0.054945,0.054945
2026-01-07 12:57:01.328000+00:00,0.054945,0.065934
2026-01-07 12:57:01.331000+00:00,0.065934,0.065934
2026-01-07 12:57:01.335000+00:00,0.054945,0.065934
2026-01-07 12:57:01.339000+00:00,0.054945,0.065934
2026-01-07 12:57:01.343000+00:00,0.054945,0.065934
2026-01-07 12:57:01.347000+00:00,0.054945,0.065934
2026-01-07 12:57:01.351000+00:00,0.054945,0.065934
2026-01-07 12:57:01.355000+00:00,0.043956,0.054945
2026-01-07 12:57:01.359000+00:00,0.043956,0.054945
2026-01-07 12:57:01.363000+00:00,0.043956,0.043956
2026-01-07 12:57:01.367000+00:00,0.043956,0.043956
2026-01-07 12:57:01.370000+00:00,0.032967,0.032967
2026-01-07 12:57:01.374000+00:00,0.021978,0.032967
2026-01-07 12:57:01.378000+00:00,0.021978,0.021978
2026-01-07 12:57:01.382000+00:00,0.0,0.010989
2026-01-07 12:57:01.386000+00:00,0.0,0.010989
2026-01-07 12:57:01.390000+00:00,-0.010989,0.0
2026-01-07 12:57:01.394000+00:00,-0.021978,-0.010989
2026-01-07 12:57:01.398000+00:00,-0.032967,-0.021978
2026-01-07 12:57:01.402000+00:00,-0.043956,-0.032967
2026-01-07 12:57:01.406000+00:00,-0.043956,-0.032967
2026-01-07 12:57:01.410000+00:00,-0.043956,-0.032967
2026-01-07 12:57:01.413000+00:00,-0.043956,-0.032967
2026-01-07 12:57:01.417000+00:00,-0.043956,-0.043956
2026-01-07 12:57:01.421000+00:00,-0.043956,-0.032967
2026-01-07 12:57:01.425000+00:00,-0.032967,-0.021978
2026-01-07 12:57:01.429000+00:00,-0.032967,-0.021978
2026-01-07 12:57:01.433000+00:00,-0.021978,-0.010989
2026-01-07 12:57:01.437000+00:00,-0.010989,-0.010989
2026-01-07 12:57:01.441000+00:00,0.0,0.0
2026-01-07 12:57:01.445000+00:00,0.0,0.0
2026-01-07 12:57:01.449000+00:00,0.0,-0.010989
2026-01-07 12:57:01.453000+00:00,0.010989,0.0
2026-01-07 12:57:01.456000+00:00,0.010989,0.010989
2026-01-07 12:57:01.460000+00:00,0.010989,0.010989
2026-01-07 12:57:01.464000+00:00,0.010989,0.021978
2026-01-07 12:57:01.468000+00:00,0.010989,0.021978
2026-01-07 12:57:01.472000+00:00,0.021978,0.021978
2026-01-07 12:57:01.476000+00:00,0.032967,0.032967
2026-01-07 12:57:01.480000+00:00,0.032967,0.032967
2026-01-07 12:57:01.484000+00:00,0.032967,0.032967
2026-01-07 12:57:01.488000+00:00,0.032967,0.043956
2026-01-07 12:57:01.492000+00:00,0.032967,0.032967
2026-01-07 12:57:01.495000+00:00,0.043956,0.032967
2026-01-07 12:57:01.499000+00:00,0.043956,0.032967
2026-01-07 12:57:01.503000+00:00,0.043956,0.032967
2026-01-07 12:57:01.507000+00:00,0.043956,0.032967
2026-01-07 12:57:01.511000+00:00,0.032967,0.043956
2026-01-07 12:57:01.515000+00:00,0.043956,0.043956
2026-01-07 12:57:01.519000+00:00,0.043956,0.043956
2026-01-07 12:57:01.523000+00:00,0.043956,0.043956
2026-01-07 12:57:01.527000+00:00,0.043956,0.043956
2026-01-07 12:57:01.531000+00:00,0.043956,0.043956
2026-01-07 12:57:01.535000+00:00,0.032967,0.043956
2026-01-07 12:57:01.538000+00:00,0.043956,0.043956
2026-01-07 12:57:01.542000+00:00,0.032967,0.043956
2026-01-07 12:57:01.546000+00:00,0.043956,0.043956
2026-01-07 12:57:01.550000+00:00,0.043956,0.043956
2026-01-07 12:57:01.554000+00:00,0.043956,0.043956
2026-01-07 12:57:01.558000+00:00,0.032967,0.043956
2026-01-07 12:57:01.562000+00:00,0.043956,0.054945
2026-01-07 12:57:01.566000+00:00,0.043956,0.043956
2026-01-07 12:57:01.570000+00:00,0.043956,0.043956
2026-01-07 12:57:01.574000+00:00,0.032967,0.043956
2026-01-07 12:57:01.578000+00:00,0.043956,0.032967
2026-01-07 12:57:01.581000+00:00,0.043956,0.032967
2026-01-07 12:57:01.585000+00:00,0.032967,0.032967
2026-01-07 12:57:01.589000+00:00,0.032967,0.032967
2026-01-07 12:57:01.593000+00:00,0.043956,0.032967
2026-01-07 12:57:01.597000+00:00,0.043956,0.032967
2026-01-07 12:57:01.601000+00:00,0.054945,0.043956
2026-01-07 12:57:01.605000+00:00,0.043956,0.032967
2026-01-07 12:57:01.609000+00:00,0.043956,0.032967
2026-01-07 12:57:01.613000+00:00,0.043956,0.032967
2026-01-07 12:57:01.617000+00:00,0.043956,0.032967
2026-01-07 12:57:01.620000+00:00,0.043956,0.021978
2026-01-07 12:57:01.624000+00:00,0.043956,0.032967
2026-01-07 12:57:01.628000+00:00,0.043956,0.032967
2026-01-07 12:57:01.632000+00:00,0.043956,0.032967
2026-01-07 12:57:01.636000+00:00,0.032967,0.032967
2026-01-07 12:57:01.640000+00:00,0.032967,0.032967
2026-01-07 12:57:01.644000+00:00,0.021978,0.032967
2026-01-07 12:57:01.648000+00:00,0.032967,0.032967
2026-01-07 12:57:01.652000+00:00,0.032967,0.032967
2026-01-07 12:57:01.656000+00:00,0.032967,0.032967
2026-01-07 12:57:01.660000+00:00,0.021978,0.032967
2026-01-07 12:57:01.663000+00:00,0.021978,0.032967
2026-01-07 12:57:01.667000+00:00,0.021978,0.043956
2026-01-07 12:57:01.671000+00:00,0.021978,0.032967
2026-01-07 12:57:01.675000+00:00,0.021978,0.032967
2026-01-07 12:57:01.679000+00:00,0.021978,0.021978
2026-01-07 12:57:01.683000+00:00,0.021978,0.021978
2026-01-07 12:57:01.687000+00:00,0.021978,0.021978
2026-01-07 12:57:01.691000+00:00,0.021978,0.032967
2026-01-07 12:57:01.695000+00:00,0.021978,0.032967
2026-01-07 12:57:01.699000+00:00,0.010989,0.032967
2026-01-07 12:57:01.703000+00:00,0.010989,0.021978
2026-01-07 12:57:01.706000+00:00,0.021978,0.032967
2026-01-07 12:57:01.710000+00:00,0.010989,0.032967
2026-01-07 12:57:01.714000+00:00,0.010989,0.021978
2026-01-07 12:57:01.718000+00:00,0.010989,0.032967
2026-01-07 12:57:01.722000+00:00,0.021978,0.032967
2026-01-07 12:57:01.726000+00:00,0.010989,0.021978
2026-01-07 12:57:01.730000+00:00,0.010989,0.032967
2026-01-07 12:57:01.734000+00:00,0.010989,0.032967
2026-01-07 12:57:01.738000+00:00,0.010989,0.043956
2026-01-07 12:57:01.742000+00:00,0.021978,0.043956
2026-01-07 12:57:01.745000+00:00,0.021978,0.043956
2026-01-07 12:57:01.749000+00:00,0.010989,0.032967
2026-01-07 12:57:01.753000+00:00,0.021978,0.032967
2026-01-07 12:57:01.757000+00:00,0.021978,0.032967
2026-01-07 12:57:01.761000+00:00,0.010989,0.032967
2026-01-07 12:57:01.765000+00:00,0.021978,0.032967
2026-01-07 12:57:01.769000+00:00,0.021978,0.032967
2026-01-07 12:57:01.773000+00:00,0.010989,0.032967
2026-01-07 12:57:01.777000+00:00,0.021978,0.032967
2026-01-07 12:57:01.781000+00:00,0.021978,0.032967
2026-01-07 12:57:01.785000+00:00,0.010989,0.032967
2026-01-07 12:57:01.788000+00:00,0.021978,0.010989
2026-01-07 12:57:01.792000+00:00,0.021978,0.032967
2026-01-07 12:57:01.796000+00:00,0.021978,0.032967
2026-01-07 12:57:01.800000+00:00,0.021978,0.032967
2026-01-07 12:57:01.804000+00:00,0.032967,0.032967
2026-01-07 12:57:01.808000+00:00,0.032967,0.032967
2026-01-07 12:57:01.812000+00:00,0.032967,0.032967
2026-01-07 12:57:01.816000+00:00,0.032967,0.032967
2026-01-07 12:57:01.820000+00:00,0.043956,0.032967
2026-01-07 12:57:01.824000+00:00,0.032967,0.032967
2026-01-07 12:57:01.828000+00:00,0.032967,0.032967
2026-01-07 12:57:01.831000+00:00,0.021978,0.043956
2026-01-07 12:57:01.835000+00:00,0.032967,0.043956
2026-01-07 12:57:01.839000+00:00,0.032967,0.032967
2026-01-07 12:57:01.843000+00:00,0.032967,0.043956
2026-01-07 12:57:01.847000+00:00,0.032967,0.043956
2026-01-07 12:57:01.851000+00:00,0.032967,0.054945
2026-01-07 12:57:01.855000+00:00,0.032967,0.043956
2026-01-07 12:57:01.859000+00:00,0.032967,0.043956
2026-01-07 12:57:01.863000+00:00,0.032967,0.043956
2026-01-07 12:57:01.867000+00:00,0.032967,0.043956
2026-01-07 12:57:01.870000+00:00,0.021978,0.043956
2026-01-07 12:57:01.874000+00:00,0.021978,0.032967
2026-01-07 12:57:01.878000+00:00,0.032967,0.032967
2026-01-07 12:57:01.882000+00:00,0.032967,0.032967
2026-01-07 12:57:01.886000+00:00,0.043956,0.032967
2026-01-07 12:57:01.890000+00:00,0.054945,0.043956
2026-01-07 12:57:01.894000+00:00,0.054945,0.054945
2026-01-07 12:57:01.898000+00:00,0.054945,0.054945
2026-01-07 12:57:01.902000+00:00,0.043956,0.043956
2026-01-07 12:57:01.906000+00:00,0.043956,0.032967
2026-01-07 12:57:01.910000+00:00,0.043956,0.043956
2026-01-07 12:57:01.913000+00:00,0.032967,0.032967
2026-01-07 12:57:01.917000+00:00,0.021978,0.010989
2026-01-07 12:57:01.921000+00:00,0.010989,0.010989
2026-01-07 12:57:01.925000+00:00,0.010989,0.021978
2026-01-07 12:57:01.929000+00:00,0.010989,0.021978
2026-01-07 12:57:01.933000+00:00,0.021978,0.021978
2026-01-07 12:57:01.937000+00:00,0.010989,0.021978
2026-01-07 12:57:01.941000+00:00,0.010989,0.021978
2026-01-07 12:57:01.945000+00:00,0.021978,0.021978
2026-01-07 12:57:01.949000+00:00,0.021978,0.021978
2026-01-07 12:57:01.953000+00:00,0.032967,0.021978
2026-01-07 12:57:01.956000+00:00,0.021978,0.032967
2026-01-07 12:57:01.960000+00:00,0.021978,0.032967
2026-01-07 12:57:01.964000+00:00,0.032967,0.043956
2026-01-07 12:57:01.968000+00:00,0.032967,0.043956
2026-01-07 12:57:01.972000+00:00,0.032967,0.032967
2026-01-07 12:57:01.976000+00:00,0.032967,0.032967
2026-01-07 12:57:01.980000+00:00,0.032967,0.043956
2026-01-07 12:57:01.984000+00:00,0.032967,0.043956
2026-01-07 12:57:01.988000+00:00,0.043956,0.043956
2026-01-07 12:57:01.992000+00:00,0.021978,0.032967
2026-01-07 12:57:01.995000+00:00,-0.010989,0.010989
2026-01-07 12:57:01.999000+00:00,-0.043956,0.0
2026-01-07 12:57:02.003000+00:00,-0.043956,0.021978
2026-01-07 12:57:02.007000+00:00,0.032967,0.10989
2026-01-07 12:57:02.011000+00:00,0.208791,0.274725
2026-01-07 12:57:02.015000+00:00,0.417582,0.461538
2026-01-07 12:57:02.019000+00:00,0.615384,0.637362
2026-01-07 12:57:02.023000+00:00,0.780219,0.736263
2026-01-07 12:57:02.027000+00:00,0.890109,0.780219
2026-01-07 12:57:02.031000+00:00,0.901098,0.703296
2026-01-07 12:57:02.035000+00:00,0.703296,0.472527
2026-01-07 12:57:02.038000+00:00,0.21978,0.021978
2026-01-07 12:57:02.042000+00:00,-0.318681,-0.43956
2026-01-07 12:57:02.046000+00:00,-0.703296,-0.758241
2026-01-07 12:57:02.050000+00:00,-0.835164,-0.813186
2026-01-07 12:57:02.054000+00:00,-0.681318,-0.615384
2026-01-07 12:57:02.058000+00:00,-0.472527,-0.395604
2026-01-07 12:57:02.062000+00:00,-0.318681,-0.21978
2026-01-07 12:57:02.066000+00:00,-0.230769,-0.120879
2026-01-07 12:57:02.070000+00:00,-0.153846,-0.054945
2026-01-07 12:57:02.074000+00:00,-0.120879,-0.021978
2026-01-07 12:57:02.078000+00:00,-0.087912,-0.010989
2026-01-07 12:57:02.081000+00:00,-0.065934,0.0
2026-01-07 12:57:02.085000+00:00,-0.043956,0.0
2026-01-07 12:57:02.089000+00:00,-0.032967,0.021978
2026-01-07 12:57:02.093000+00:00,-0.021978,0.021978
2026-01-07 12:57:02.097000+00:00,0.0,0.021978
2026-01-07 12:57:02.101000+00:00,0.0,0.021978
2026-01-07 12:57:02.105000+00:00,0.010989,0.032967
2026-01-07 12:57:02.109000+00:00,0.021978,0.043956
2026-01-07 12:57:02.113000+00:00,0.032967,0.043956
2026-01-07 12:57:02.117000+00:00,0.032967,0.043956
2026-01-07 12:57:02.120000+00:00,0.032967,0.043956
2026-01-07 12:57:02.124000+00:00,0.032967,0.043956
2026-01-07 12:57:02.128000+00:00,0.032967,0.043956
2026-01-07 12:57:02.132000+00:00,0.032967,0.054945
2026-01-07 12:57:02.136000+00:00,0.032967,0.054945
2026-01-07 12:57:02.140000+00:00,0.032967,0.054945
2026-01-07 12:57:02.144000+00:00,0.032967,0.054945
2026-01-07 12:57:02.148000+00:00,0.032967,0.043956
2026-01-07 12:57:02.152000+00:00,0.032967,0.043956
2026-01-07 12:57:02.156000+00:00,0.043956,0.054945
2026-01-07 12:57:02.160000+00:00,0.032967,0.054945
2026-01-07 12:57:02.163000+00:00,0.032967,0.054945
2026-01-07 12:57:02.167000+00:00,0.032967,0.054945
2026-01-07 12:57:02.171000+00:00,0.032967,0.043956
2026-01-07 12:57:02.175000+00:00,0.032967,0.043956
2026-01-07 12:57:02.179000+00:00,0.032967,0.043956
2026-01-07 12:57:02.183000+00:00,0.032967,0.043956
2026-01-07 12:57:02.187000+00:00,0.043956,0.054945
2026-01-07 12:57:02.191000+00:00,0.043956,0.054945
2026-01-07 12:57:02.195000+00:00,0.043956,0.054945
2026-01-07 12:57:02.199000+00:00,0.032967,0.065934
2026-01-07 12:57:02.203000+00:00,0.043956,0.065934
2026-01-07 12:57:02.206000+00:00,0.043956,0.065934
2026-01-07 12:57:02.210000+00:00,0.054945,0.065934
2026-01-07 12:57:02.214000+00:00,0.065934,0.076923
2026-01-07 12:57:02.218000+00:00,0.065934,0.065934
2026-01-07 12:57:02.222000+00:00,0.065934,0.076923
2026-01-07 12:57:02.226000+00:00,0.065934,0.076923
2026-01-07 12:57:02.230000+00:00,0.065934,0.076923
2026-01-07 12:57:02.234000+00:00,0.054945,0.065934
2026-01-07 12:57:02.238000+00:00,0.054945,0.054945
2026-01-07 12:57:02.242000+00:00,0.054945,0.054945
2026-01-07 12:57:02.245000+00:00,0.054945,0.065934
2026-01-07 12:57:02.249000+00:00,0.043956,0.054945
2026-01-07 12:57:02.253000+00:00,0.043956,0.054945
2026-01-07 12:57:02.257000+00:00,0.032967,0.043956
2026-01-07 12:57:02.261000+00:00,0.021978,0.043956
2026-01-07 12:57:02.265000+00:00,0.021978,0.032967
2026-01-07 12:57:02.269000+00:00,0.010989,0.021978
2026-01-07 12:57:02.273000+00:00,0.010989,0.010989
2026-01-07 12:57:02.277000+00:00,0.010989,0.010989
2026-01-07 12:57:02.281000+00:00,-0.010989,-0.010989
2026-01-07 12:57:02.285000+00:00,-0.010989,-0.010989
2026-01-07 12:57:02.288000+00:00,-0.021978,-0.021978
2026-01-07 12:57:02.292000+00:00,-0.021978,-0.032967
2026-01-07 12:57:02.296000+00:00,-0.032967,-0.043956
2026-01-07 12:57:02.300000+00:00,-0.032967,-0.043956
2026-01-07 12:57:02.304000+00:00,-0.032967,-0.032967
2026-01-07 12:57:02.308000+00:00,-0.032967,-0.032967
2026-01-07 12:57:02.312000+00:00,-0.021978,-0.032967
2026-01-07 12:57:02.316000+00:00,-0.021978,-0.021978
2026-01-07 12:57:02.320000+00:00,-0.010989,-0.021978
2026-01-07 12:57:02.324000+00:00,-0.010989,-0.021978
2026-01-07 12:57:02.328000+00:00,0.0,-0.010989
2026-01-07 12:57:02.331000+00:00,0.0,0.0
2026-01-07 12:57:02.335000+00:00,0.0,0.0
2026-01-07 12:57:02.339000+00:00,0.010989,0.010989
2026-01-07 12:57:02.343000+00:00,0.021978,0.010989
2026-01-07 12:57:02.347000+00:00,0.021978,0.021978
2026-01-07 12:57:02.351000+00:00,0.032967,0.021978
2026-01-07 12:57:02.355000+00:00,0.021978,0.021978
2026-01-07 12:57:02.359000+00:00,0.032967,0.032967
2026-01-07 12:57:02.363000+00:00,0.032967,0.032967
2026-01-07 12:57:02.367000+00:00,0.032967,0.032967
2026-01-07 12:57:02.370000+00:00,0.032967,0.032967
2026-01-07 12:57:02.374000+00:00,0.032967,0.032967
2026-01-07 12:57:02.378000+00:00,0.043956,0.032967
2026-01-07 12:57:02.382000+00:00,0.043956,0.043956
2026-01-07 12:57:02.386000+00:00,0.032967,0.043956
2026-01-07 12:57:02.390000+00:00,0.043956,0.043956
2026-01-07 12:57:02.394000+00:00,0.043956,0.043956
2026-01-07 12:57:02.398000+00:00,0.043956,0.043956
2026-01-07 12:57:02.402000+00:00,0.043956,0.043956
2026-01-07 12:57:02.406000+00:00,0.043956,0.043956
2026-01-07 12:57:02.410000+00:00,0.043956,0.043956
2026-01-07 12:57:02.413000+00:00,0.032967,0.043956
2026-01-07 12:57:02.417000+00:00,0.032967,0.043956
2026-01-07 12:57:02.421000+00:00,0.043956,0.043956
2026-01-07 12:57:02.425000+00:00,0.043956,0.043956
2026-01-07 12:57:02.429000+00:00,0.043956,0.043956
2026-01-07 12:57:02.433000+00:00,0.032967,0.043956
2026-01-07 12:57:02.437000+00:00,0.032967,0.043956
2026-01-07 12:57:02.441000+00:00,0.032967,0.043956
2026-01-07 12:57:02.445000+00:00,0.032967,0.043956
2026-01-07 12:57:02.449000+00:00,0.032967,0.032967
2026-01-07 12:57:02.453000+00:00,0.021978,0.032967
2026-01-07 12:57:02.456000+00:00,0.032967,0.032967
2026-01-07 12:57:02.460000+00:00,0.032967,0.043956
2026-01-07 12:57:02.464000+00:00,0.032967,0.032967
2026-01-07 12:57:02.468000+00:00,0.032967,0.043956
2026-01-07 12:57:02.472000+00:00,0.032967,0.043956
2026-01-07 12:57:02.476000+00:00,0.021978,0.032967
2026-01-07 12:57:02.480000+00:00,0.032967,0.032967
2026-01-07 12:57:02.484000+00:00,0.021978,0.032967
2026-01-07 12:57:02.488000+00:00,0.021978,0.032967
2026-01-07 12:57:02.492000+00:00,0.021978,0.032967
2026-01-07 12:57:02.495000+00:00,0.021978,0.032967
2026-01-07 12:57:02.499000+00:00,0.032967,0.043956
2026-01-07 12:57:02.503000+00:00,0.032967,0.032967
2026-01-07 12:57:02.507000+00:00,0.021978,0.032967
2026-01-07 12:57:02.511000+00:00,0.021978,0.032967
2026-01-07 12:57:02.515000+00:00,0.021978,0.032967
2026-01-07 12:57:02.519000+00:00,0.021978,0.032967
2026-01-07 12:57:02.523000+00:00,0.021978,0.032967
2026-01-07 12:57:02.527000+00:00,0.021978,0.032967
2026-01-07 12:57:02.531000+00:00,0.021978,0.032967
2026-01-07 12:57:02.535000+00:00,0.021978,0.032967
2026-01-07 12:57:02.538000+00:00,0.021978,0.032967
2026-01-07 12:57:02.542000+00:00,0.021978,0.032967
2026-01-07 12:57:02.546000+00:00,0.032967,0.032967
2026-01-07 12:57:02.550000+00:00,0.021978,0.032967
2026-01-07 12:57:02.554000+00:00,0.021978,0.032967
2026-01-07 12:57:02.558000+00:00,0.032967,0.032967
2026-01-07 12:57:02.562000+00:00,0.021978,0.032967
2026-01-07 12:57:02.566000+00:00,0.032967,0.032967
2026-01-07 12:57:02.570000+00:00,0.021978,0.032967
2026-01-07 12:57:02.574000+00:00,0.021978,0.021978
2026-01-07 12:57:02.578000+00:00,0.032967,0.021978
2026-01-07 12:57:02.581000+00:00,0.032967,0.032967
2026-01-07 12:57:02.585000+00:00,0.021978,0.021978
2026-01-07 12:57:02.589000+00:00,0.021978,0.032967
2026-01-07 12:57:02.593000+00:00,0.032967,0.021978
2026-01-07 12:57:02.597000+00:00,0.021978,0.032967
2026-01-07 12:57:02.601000+00:00,0.032967,0.032967
2026-01-07 12:57:02.605000+00:00,0.021978,0.032967
2026-01-07 12:57:02.609000+00:00,0.021978,0.032967
2026-01-07 12:57:02.613000+00:00,0.032967,0.032967
2026-01-07 12:57:02.617000+00:00,0.032967,0.032967
2026-01-07 12:57:02.620000+00:00,0.032967,0.032967
2026-01-07 12:57:02.624000+00:00,0.032967,0.032967
2026-01-07 12:57:02.628000+00:00,0.021978,0.032967
2026-01-07 12:57:02.632000+00:00,0.032967,0.032967
2026-01-07 12:57:02.636000+00:00,0.032967,0.043956
2026-01-07 12:57:02.640000+00:00,0.032967,0.032967
2026-01-07 12:57:02.644000+00:00,0.043956,0.043956
2026-01-07 12:57:02.648000+00:00,0.021978,0.032967
2026-01-07 12:57:02.652000+00:00,0.032967,0.032967
2026-01-07 12:57:02.656000+00:00,0.032967,0.032967
2026-01-07 12:57:02.660000+00:00,0.021978,0.032967
2026-01-07 12:57:02.663000+00:00,0.021978,0.032967
2026-01-07 12:57:02.667000+00:00,0.032967,0.032967
2026-01-07 12:57:02.671000+00:00,0.032967,0.043956
2026-01-07 12:57:02.675000+00:00,0.032967,0.032967
2026-01-07 12:57:02.679000+00:00,0.032967,0.032967
2026-01-07 12:57:02.683000+00:00,0.032967,0.032967
2026-01-07 12:57:02.687000+00:00,0.032967,0.043956
2026-01-07 12:57:02.691000+00:00,0.032967,0.043956
2026-01-07 12:57:02.695000+00:00,0.032967,0.043956
2026-01-07 12:57:02.699000+00:00,0.032967,0.032967
2026-01-07 12:57:02.703000+00:00,0.032967,0.032967
2026-01-07 12:57:02.706000+00:00,0.032967,0.032967
2026-01-07 12:57:02.710000+00:00,0.021978,0.032967
2026-01-07 12:57:02.714000+00:00,0.032967,0.032967
2026-01-07 12:57:02.718000+00:00,0.032967,0.032967
2026-01-07 12:57:02.722000+00:00,0.032967,0.032967
2026-01-07 12:57:02.726000+00:00,0.032967,0.032967
2026-01-07 12:57:02.730000+00:00,0.032967,0.032967
2026-01-07 12:57:02.734000+00:00,0.032967,0.021978
2026-01-07 12:57:02.738000+00:00,0.032967,0.021978
2026-01-07 12:57:02.742000+00:00,0.032967,0.032967
2026-01-07 12:57:02.745000+00:00,0.021978,0.032967
2026-01-07 12:57:02.749000+00:00,0.021978,0.043956
2026-01-07 12:57:02.753000+00:00,0.032967,0.043956
2026-01-07 12:57:02.757000+00:00,0.032967,0.043956
2026-01-07 12:57:02.761000+00:00,0.032967,0.043956
2026-01-07 12:57:02.765000+00:00,0.021978,0.032967
2026-01-07 12:57:02.769000+00:00,0.021978,0.032967
2026-01-07 12:57:02.773000+00:00,0.021978,0.032967
2026-01-07 12:57:02.777000+00:00,0.010989,0.032967
2026-01-07 12:57:02.781000+00:00,0.021978,0.043956
2026-01-07 12:57:02.785000+00:00,0.032967,0.032967
2026-01-07 12:57:02.788000+00:00,0.032967,0.032967
2026-01-07 12:57:02.792000+00:00,0.043956,0.032967
2026-01-07 12:57:02.796000+00:00,0.054945,0.043956
2026-01-07 12:57:02.800000+00:00,0.054945,0.043956
2026-01-07 12:57:02.804000+00:00,0.054945,0.043956
2026-01-07 12:57:02.808000+00:00,0.043956,0.043956
2026-01-07 12:57:02.812000+00:00,0.043956,0.032967
2026-01-07 12:57:02.816000+00:00,0.032967,0.032967
2026-01-07 12:57:02.820000+00:00,0.021978,0.021978
2026-01-07 12:57:02.824000+00:00,0.021978,0.010989
2026-01-07 12:57:02.828000+00:00,0.010989,0.010989
2026-01-07 12:57:02.831000+00:00,0.010989,0.010989
2026-01-07 12:57:02.835000+00:00,0.010989,0.010989
2026-01-07 12:57:02.839000+00:00,0.010989,0.021978
2026-01-07 12:57:02.843000+00:00,0.021978,0.021978
2026-01-07 12:57:02.847000+00:00,0.021978,0.021978
2026-01-07 12:57:02.851000+00:00,0.021978,0.032967
2026-01-07 12:57:02.855000+00:00,0.021978,0.021978
2026-01-07 12:57:02.859000+00:00,0.021978,0.032967
2026-01-07 12:57:02.863000+00:00,0.021978,0.032967
2026-01-07 12:57:02.867000+00:00,0.021978,0.032967
2026-01-07 12:57:02.870000+00:00,0.032967,0.032967
2026-01-07 12:57:02.874000+00:00,0.032967,0.032967
2026-01-07 12:57:02.878000+00:00,0.032967,0.032967
2026-01-07 12:57:02.882000+00:00,0.032967,0.032967
2026-01-07 12:57:02.886000+00:00,0.032967,0.032967
2026-01-07 12:57:02.890000+00:00,0.032967,0.043956
2026-01-07 12:57:02.894000+00:00,0.021978,0.032967
2026-01-07 12:57:02.898000+00:00,-0.021978,0.010989
2026-01-07 12:57:02.902000+00:00,-0.054945,0.0
2026-01-07 12:57:02.906000+00:00,-0.043956,0.021978
2026-01-07 12:57:02.910000+00:00,0.021978,0.10989
2026-01-07 12:57:02.913000+00:00,0.208791,0.274725
2026-01-07 12:57:02.917000+00:00,0.406593,0.450549
2026-01-07 12:57:02.921000+00:00,0.626373,0.648351
2026-01-07 12:57:02.925000+00:00,0.780219,0.747252
2026-01-07 12:57:02.929000+00:00,0.87912,0.780219
2026-01-07 12:57:02.933000+00:00,0.87912,0.703296
2026-01-07 12:57:02.937000+00:00,0.670329,0.43956
2026-01-07 12:57:02.941000+00:00,0.175824,-0.021978
2026-01-07 12:57:02.945000+00:00,-0.318681,-0.450549
2026-01-07 12:57:02.949000+00:00,-0.681318,-0.736263
2026-01-07 12:57:02.953000+00:00,-0.802197,-0.791208
2026-01-07 12:57:02.956000+00:00,-0.648351,-0.593406
2026-01-07 12:57:02.960000+00:00,-0.450549,-0.384615
2026-01-07 12:57:02.964000+00:00,-0.318681,-0.21978
2026-01-07 12:57:02.968000+00:00,-0.208791,-0.10989
2026-01-07 12:57:02.972000+00:00,-0.142857,-0.054945
2026-01-07 12:57:02.976000+00:00,-0.10989,-0.021978
2026-01-07 12:57:02.980000+00:00,-0.076923,-0.010989
2026-01-07 12:57:02.984000+00:00,-0.054945,-0.010989
2026-01-07 12:57:02.988000+00:00,-0.043956,0.0
2026-01-07 12:57:02.992000+00:00,-0.021978,0.010989
2026-01-07 12:57:02.995000+00:00,0.0,0.021978
2026-01-07 12:57:02.999000+00:00,0.0,0.032967
2026-01-07 12:57:03.003000+00:00,0.010989,0.032967
2026-01-07 12:57:03.007000+00:00,0.021978,0.032967
2026-01-07 12:57:03.011000+00:00,0.021978,0.043956
2026-01-07 12:57:03.015000+00:00,0.032967,0.043956
2026-01-07 12:57:03.019000+00:00,0.043956,0.043956
2026-01-07 12:57:03.023000+00:00,0.043956,0.032967
2026-01-07 12:57:03.027000+00:00,0.043956,0.032967
2026-01-07 12:57:03.031000+00:00,0.043956,0.032967
2026-01-07 12:57:03.035000+00:00,0.032967,0.043956
2026-01-07 12:57:03.038000+00:00,0.043956,0.043956
2026-01-07 12:57:03.042000+00:00,0.043956,0.043956
2026-01-07 12:57:03.046000+00:00,0.043956,0.054945
2026-01-07 12:57:03.050000+00:00,0.032967,0.043956
2026-01-07 12:57:03.054000+00:00,0.043956,0.043956
2026-01-07 12:57:03.058000+00:00,0.032967,0.043956
2026-01-07 12:57:03.062000+00:00,0.043956,0.054945
2026-01-07 12:57:03.066000+00:00,0.043956,0.054945
2026-01-07 12:57:03.070000+00:00,0.043956,0.043956
2026-01-07 12:57:03.074000+00:00,0.032967,0.043956
2026-01-07 12:57:03.078000+00:00,0.043956,0.054945
2026-01-07 12:57:03.081000+00:00,0.032967,0.043956
2026-01-07 12:57:03.085000+00:00,0.043956,0.043956
2026-01-07 12:57:03.089000+00:00,0.043956,0.054945
2026-01-07 12:57:03.093000+00:00,0.054945,0.054945
2026-01-07 12:57:03.097000+00:00,0.054945,0.065934
2026-01-07 12:57:03.101000+00:00,0.054945,0.065934
2026-01-07 12:57:03.105000+00:00,0.054945,0.065934
2026-01-07 12:57:03.109000+00:00,0.054945,0.065934
2026-01-07 12:57:03.113000+00:00,0.054945,0.076923
2026-01-07 12:57:03.117000+00:00,0.054945,0.065934
2026-01-07 12:57:03.120000+00:00,0.054945,0.065934
2026-01-07 12:57:03.124000+00:00,0.065934,0.076923
2026-01-07 12:57:03.128000+00:00,0.054945,0.076923
2026-01-07 12:57:03.132000+00:00,0.065934,0.076923
2026-01-07 12:57:03.136000+00:00,0.065934,0.076923
2026-01-07 12:57:03.140000+00:00,0.054945,0.065934
2026-01-07 12:57:03.144000+00:00,0.043956,0.054945
2026-01-07 12:57:03.148000+00:00,0.032967,0.043956
2026-01-07 12:57:03.152000+00:00,0.043956,0.054945
2026-01-07 12:57:03.156000+00:00,0.032967,0.043956
2026-01-07 12:57:03.160000+00:00,0.032967,0.032967
2026-01-07 12:57:03.163000+00:00,0.021978,0.032967
2026-01-07 12:57:03.167000+00:00,0.021978,0.032967
2026-01-07 12:57:03.171000+00:00,0.010989,0.021978
2026-01-07 12:57:03.175000+00:00,0.010989,0.010989
2026-01-07 12:57:03.179000+00:00,0.0,0.010989
2026-01-07 12:57:03.183000+00:00,-0.021978,-0.021978
2026-01-07 12:57:03.187000+00:00,-0.032967,-0.021978
2026-01-07 12:57:03.191000+00:00,-0.032967,-0.032967
2026-01-07 12:57:03.195000+00:00,-0.043956,-0.043956
2026-01-07 12:57:03.199000+00:00,-0.043956,-0.032967
2026-01-07 12:57:03.203000+00:00,-0.043956,-0.032967
2026-01-07 12:57:03.206000+00:00,-0.043956,-0.032967
2026-01-07 12:57:03.210000+00:00,-0.032967,-0.032967
2026-01-07 12:57:03.214000+00:00,-0.032967,-0.032967
2026-01-07 12:57:03.218000+00:00,-0.021978,-0.021978
2026-01-07 12:57:03.222000+00:00,-0.010989,-0.021978
2026-01-07 12:57:03.226000+00:00,-0.010989,-0.021978
2026-01-07 12:57:03.230000+00:00,-0.010989,-0.010989
2026-01-07 12:57:03.234000+00:00,0.0,0.0
2026-01-07 12:57:03.238000+00:00,0.0,0.010989
2026-01-07 12:57:03.242000+00:00,0.0,0.010989
2026-01-07 12:57:03.245000+00:00,0.010989,0.010989
2026-01-07 12:57:03.249000+00:00,0.010989,0.010989
2026-01-07 12:57:03.253000+00:00,0.010989,0.021978
2026-01-07 12:57:03.257000+00:00,0.021978,0.021978
2026-01-07 12:57:03.261000+00:00,0.021978,0.032967
2026-01-07 12:57:03.265000+00:00,0.021978,0.021978
2026-01-07 12:57:03.269000+00:00,0.021978,0.021978
2026-01-07 12:57:03.273000+00:00,0.021978,0.032967
2026-01-07 12:57:03.277000+00:00,0.021978,0.032967
2026-01-07 12:57:03.281000+00:00,0.032967,0.032967
2026-01-07 12:57:03.285000+00:00,0.032967,0.032967
2026-01-07 12:57:03.288000+00:00,0.032967,0.043956
2026-01-07 12:57:03.292000+00:00,0.043956,0.043956
2026-01-07 12:57:03.296000+00:00,0.043956,0.043956
2026-01-07 12:57:03.300000+00:00,0.032967,0.043956
2026-01-07 12:57:03.304000+00:00,0.043956,0.043956
2026-01-07 12:57:03.308000+00:00,0.032967,0.032967
2026-01-07 12:57:03.312000+00:00,0.032967,0.032967
2026-01-07 12:57:03.316000+00:00,0.032967,0.032967
2026-01-07 12:57:03.320000+00:00,0.032967,0.032967
2026-01-07 12:57:03.324000+00:00,0.032967,0.043956
2026-01-07 12:57:03.328000+00:00,0.032967,0.043956
2026-01-07 12:57:03.331000+00:00,0.043956,0.054945
2026-01-07 12:57:03.335000+00:00,0.032967,0.043956
2026-01-07 12:57:03.339000+00:00,0.032967,0.032967
2026-01-07 12:57:03.343000+00:00,0.032967,0.043956
2026-01-07 12:57:03.347000+00:00,0.043956,0.043956
2026-01-07 12:57:03.351000+00:00,0.032967,0.032967
2026-01-07 12:57:03.355000+00:00,0.021978,0.032967
2026-01-07 12:57:03.359000+00:00,0.032967,0.043956
2026-01-07 12:57:03.363000+00:00,0.032967,0.043956
2026-01-07 12:57:03.367000+00:00,0.032967,0.032967
2026-01-07 12:57:03.370000+00:00,0.021978,0.032967
2026-01-07 12:57:03.374000+00:00,0.021978,0.032967
2026-01-07 12:57:03.378000+00:00,0.021978,0.032967
2026-01-07 12:57:03.382000+00:00,0.032967,0.032967
2026-01-07 12:57:03.386000+00:00,0.032967,0.032967
2026-01-07 12:57:03.390000+00:00,0.021978,0.032967
2026-01-07 12:57:03.394000+00:00,0.021978,0.043956
2026-01-07 12:57:03.398000+00:00,0.021978,0.032967
2026-01-07 12:57:03.402000+00:00,0.032967,0.032967
2026-01-07 12:57:03.406000+00:00,0.021978,0.032967
2026-01-07 12:57:03.410000+00:00,0.021978,0.043956
2026-01-07 12:57:03.413000+00:00,0.021978,0.032967
2026-01-07 12:57:03.417000+00:00,0.032967,0.032967
2026-01-07 12:57:03.421000+00:00,0.021978,0.032967
2026-01-07 12:57:03.425000+00:00,0.021978,0.032967
2026-01-07 12:57:03.429000+00:00,0.021978,0.032967
2026-01-07 12:57:03.433000+00:00,0.021978,0.032967
2026-01-07 12:57:03.437000+00:00,0.021978,0.032967
2026-01-07 12:57:03.441000+00:00,0.032967,0.021978
2026-01-07 12:57:03.445000+00:00,0.032967,0.032967
2026-01-07 12:57:03.449000+00:00,0.032967,0.032967
2026-01-07 12:57:03.453000+00:00,0.032967,0.032967
2026-01-07 12:57:03.456000+00:00,0.032967,0.032967
2026-01-07 12:57:03.460000+00:00,0.021978,0.021978
2026-01-07 12:57:03.464000+00:00,0.021978,0.032967
2026-01-07 12:57:03.468000+00:00,0.032967,0.032967
2026-01-07 12:57:03.472000+00:00,0.032967,0.043956
2026-01-07 12:57:03.476000+00:00,0.032967,0.032967
2026-01-07 12:57:03.480000+00:00,0.021978,0.043956
2026-01-07 12:57:03.484000+00:00,0.032967,0.032967
2026-01-07 12:57:03.488000+00:00,0.032967,0.043956
2026-01-07 12:57:03.492000+00:00,0.021978,0.032967
2026-01-07 12:57:03.495000+00:00,0.021978,0.032967
2026-01-07 12:57:03.499000+00:00,0.021978,0.032967
2026-01-07 12:57:03.503000+00:00,0.021978,0.032967
2026-01-07 12:57:03.507000+00:00,0.032967,0.032967
2026-01-07 12:57:03.511000+00:00,0.032967,0.032967
2026-01-07 12:57:03.515000+00:00,0.021978,0.032967
2026-01-07 12:57:03.519000+00:00,0.032967,0.032967
2026-01-07 12:57:03.523000+00:00,0.032967,0.021978
2026-01-07 12:57:03.527000+00:00,0.021978,0.032967
2026-01-07 12:57:03.531000+00:00,0.021978,0.043956
2026-01-07 12:57:03.535000+00:00,0.021978,0.032967
2026-01-07 12:57:03.538000+00:00,0.021978,0.032967
2026-01-07 12:57:03.542000+00:00,0.032967,0.032967
2026-01-07 12:57:03.546000+00:00,0.021978,0.021978
2026-01-07 12:57:03.550000+00:00,0.021978,0.032967
2026-01-07 12:57:03.554000+00:00,0.021978,0.032967
2026-01-07 12:57:03.558000+00:00,0.021978,0.032967
2026-01-07 12:57:03.562000+00:00,0.032967,0.032967
2026-01-07 12:57:03.566000+00:00,0.021978,0.032967
2026-01-07 12:57:03.570000+00:00,0.021978,0.032967
2026-01-07 12:57:03.574000+00:00,0.021978,0.021978
2026-01-07 12:57:03.578000+00:00,0.021978,0.021978
2026-01-07 12:57:03.581000+00:00,0.021978,0.032967
2026-01-07 12:57:03.585000+00:00,0.021978,0.032967
2026-01-07 12:57:03.589000+00:00,0.021978,0.032967
2026-01-07 12:57:03.593000+00:00,0.021978,0.032967
2026-01-07 12:57:03.597000+00:00,0.032967,0.032967
2026-01-07 12:57:03.601000+00:00,0.032967,0.032967
2026-01-07 12:57:03.605000+00:00,0.032967,0.032967
2026-01-07 12:57:03.609000+00:00,0.032967,0.032967
2026-01-07 12:57:03.613000+00:00,0.032967,0.032967
2026-01-07 12:57:03.617000+00:00,0.032967,0.032967
2026-01-07 12:57:03.620000+00:00,0.032967,0.032967
2026-01-07 12:57:03.624000+00:00,0.032967,0.043956
2026-01-07 12:57:03.628000+00:00,0.032967,0.043956
2026-01-07 12:57:03.632000+00:00,0.032967,0.043956
2026-01-07 12:57:03.636000+00:00,0.032967,0.032967
2026-01-07 12:57:03.640000+00:00,0.032967,0.032967
2026-01-07 12:57:03.644000+00:00,0.032967,0.032967
2026-01-07 12:57:03.648000+00:00,0.032967,0.032967
2026-01-07 12:57:03.652000+00:00,0.032967,0.043956
2026-01-07 12:57:03.656000+00:00,0.032967,0.032967
2026-01-07 12:57:03.660000+00:00,0.032967,0.032967
2026-01-07 12:57:03.663000+00:00,0.043956,0.043956
2026-01-07 12:57:03.667000+00:00,0.032967,0.043956
2026-01-07 12:57:03.671000+00:00,0.032967,0.043956
2026-01-07 12:57:03.675000+00:00,0.043956,0.054945
2026-01-07 12:57:03.679000+00:00,0.032967,0.043956
2026-01-07 12:57:03.683000+00:00,0.032967,0.054945
2026-01-07 12:57:03.687000+00:00,0.043956,0.054945
2026-01-07 12:57:03.691000+00:00,0.032967,0.043956
2026-01-07 12:57:03.695000+00:00,0.032967,0.043956
2026-01-07 12:57:03.699000+00:00,0.032967,0.043956
2026-01-07 12:57:03.703000+00:00,0.032967,0.043956
2026-01-07 12:57:03.706000+00:00,0.032967,0.043956
2026-01-07 12:57:03.710000+00:00,0.043956,0.043956
2026-01-07 12:57:03.714000+00:00,0.043956,0.043956
2026-01-07 12:57:03.718000+00:00,0.054945,0.043956
2026-01-07 12:57:03.722000+00:00,0.054945,0.054945
2026-01-07 12:57:03.726000+00:00,0.076923,0.065934
2026-01-07 12:57:03.730000+00:00,0.065934,0.054945
2026-01-07 12:57:03.734000+00:00,0.054945,0.043956
2026-01-07 12:57:03.738000+00:00,0.043956,0.043956
2026-01-07 12:57:03.742000+00:00,0.032967,0.043956
2026-01-07 12:57:03.745000+00:00,0.032967,0.043956
2026-01-07 12:57:03.749000+00:00,0.021978,0.032967
2026-01-07 12:57:03.753000+00:00,0.021978,0.021978
2026-01-07 12:57:03.757000+00:00,0.021978,0.032967
2026-01-07 12:57:03.761000+00:00,0.021978,0.021978
2026-01-07 12:57:03.765000+00:00,0.021978,0.021978
2026-01-07 12:57:03.769000+00:00,0.021978,0.032967
2026-01-07 12:57:03.773000+00:00,0.021978,0.021978
2026-01-07 12:57:03.777000+00:00,0.021978,0.032967
2026-01-07 12:57:03.781000+00:00,0.021978,0.032967
2026-01-07 12:57:03.785000+00:00,0.021978,0.032967
2026-01-07 12:57:03.788000+00:00,0.021978,0.021978
2026-01-07 12:57:03.792000+00:00,0.021978,0.032967
2026-01-07 12:57:03.796000+00:00,0.021978,0.032967
2026-01-07 12:57:03.800000+00:00,0.032967,0.032967
2026-01-07 12:57:03.804000+00:00,0.021978,0.032967
2026-01-07 12:57:03.808000+00:00,0.032967,0.032967
2026-01-07 12:57:03.812000+00:00,0.021978,0.043956
2026-01-07 12:57:03.816000+00:00,0.032967,0.054945
2026-01-07 12:57:03.820000+00:00,0.021978,0.043956
2026-01-07 12:57:03.824000+00:00,0.0,0.032967
2026-01-07 12:57:03.828000+00:00,-0.021978,0.010989
2026-01-07 12:57:03.831000+00:00,-0.054945,0.0
2026-01-07 12:57:03.835000+00:00,-0.043956,0.032967
2026-01-07 12:57:03.839000+00:00,0.043956,0.120879
2026-01-07 12:57:03.843000+00:00,0.21978,0.285714
2026-01-07 12:57:03.847000+00:00,0.406593,0.461538
2026-01-07 12:57:03.851000+00:00,0.604395,0.615384
2026-01-07 12:57:03.855000+00:00,0.747252,0.714285
2026-01-07 12:57:03.859000+00:00,0.824175,0.736263
2026-01-07 12:57:03.863000+00:00,0.791208,0.637362
2026-01-07 12:57:03.867000+00:00,0.582417,0.373626
2026-01-07 12:57:03.870000+00:00,0.10989,-0.076923
2026-01-07 12:57:03.874000+00:00,-0.32967,-0.450549
2026-01-07 12:57:03.878000+00:00,-0.65934,-0.703296
2026-01-07 12:57:03.882000+00:00,-0.76923,-0.736263
2026-01-07 12:57:03.886000+00:00,-0.615384,-0.560439
2026-01-07 12:57:03.890000+00:00,-0.43956,-0.373626
2026-01-07 12:57:03.894000+00:00,-0.307692,-0.230769
2026-01-07 12:57:03.898000+00:00,-0.208791,-0.10989
2026-01-07 12:57:03.902000+00:00,-0.142857,-0.054945
2026-01-07 12:57:03.906000+00:00,-0.10989,-0.021978
2026-01-07 12:57:03.910000+00:00,-0.076923,-0.010989
2026-01-07 12:57:03.913000+00:00,-0.054945,0.0
2026-01-07 12:57:03.917000+00:00,-0.043956,0.010989
2026-01-07 12:57:03.921000+00:00,-0.021978,0.021978
2026-01-07 12:57:03.925000+00:00,-0.021978,0.021978
2026-01-07 12:57:03.929000+00:00,0.0,0.032967
2026-01-07 12:57:03.933000+00:00,0.010989,0.043956
2026-01-07 12:57:03.937000+00:00,0.021978,0.032967
2026-01-07 12:57:03.941000+00:00,0.021978,0.043956
2026-01-07 12:57:03.945000+00:00,0.032967,0.043956
2026-01-07 12:57:03.949000+00:00,0.032967,0.054945
2026-01-07 12:57:03.953000+00:00,0.032967,0.043956
2026-01-07 12:57:03.956000+00:00,0.032967,0.043956
2026-01-07 12:57:03.960000+00:00,0.043956,0.043956
2026-01-07 12:57:03.964000+00:00,0.043956,0.043956
2026-01-07 12:57:03.968000+00:00,0.043956,0.043956
2026-01-07 12:57:03.972000+00:00,0.032967,0.054945
2026-01-07 12:57:03.976000+00:00,0.021978,0.054945
2026-01-07 12:57:03.980000+00:00,0.010989,0.054945
2026-01-07 12:57:03.984000+00:00,0.021978,0.043956
2026-01-07 12:57:03.988000+00:00,0.043956,0.043956
2026-01-07 12:57:03.992000+00:00,0.032967,0.043956
2026-01-07 12:57:03.995000+00:00,0.021978,0.032967
2026-01-07 12:57:03.999000+00:00,0.010989,0.043956
2026-01-07 12:57:04.003000+00:00,0.021978,0.043956
2026-01-07 12:57:04.007000+00:00,0.021978,0.043956
2026-01-07 12:57:04.011000+00:00,0.021978,0.043956
2026-01-07 12:57:04.015000+00:00,0.043956,0.043956
2026-01-07 12:57:04.019000+00:00,0.043956,0.054945
2026-01-07 12:57:04.023000+00:00,0.032967,0.043956
2026-01-07 12:57:04.027000+00:00,0.043956,0.043956
2026-01-07 12:57:04.031000+00:00,0.043956,0.054945
2026-01-07 12:57:04.035000+00:00,0.043956,0.054945
2026-01-07 12:57:04.038000+00:00,0.043956,0.054945
2026-01-07 12:57:04.042000+00:00,0.065934,0.054945
2026-01-07 12:57:04.046000+00:00,0.065934,0.076923
2026-01-07 12:57:04.050000+00:00,0.065934,0.076923
2026-01-07 12:57:04.054000+00:00,0.065934,0.065934
2026-01-07 12:57:04.058000+00:00,0.065934,0.065934
2026-01-07 12:57:04.062000+00:00,0.054945,0.065934
2026-01-07 12:57:04.066000+00:00,0.054945,0.065934
2026-01-07 12:57:04.070000+00:00,0.054945,0.065934
2026-01-07 12:57:04.074000+00:00,0.054945,0.065934
2026-01-07 12:57:04.078000+00:00,0.054945,0.054945
2026-01-07 12:57:04.081000+00:00,0.043956,0.054945
2026-01-07 12:57:04.085000+00:00,0.032967,0.043956
2026-01-07 12:57:04.089000+00:00,0.021978,0.032967
2026-01-07 12:57:04.093000+00:00,0.010989,0.032967
2026-01-07 12:57:04.097000+00:00,0.0,0.021978
2026-01-07 12:57:04.101000+00:00,0.0,0.021978
2026-01-07 12:57:04.105000+00:00,0.0,0.010989
2026-01-07 12:57:04.109000+00:00,-0.010989,0.0
2026-01-07 12:57:04.113000+00:00,-0.021978,-0.010989
2026-01-07 12:57:04.117000+00:00,-0.021978,-0.021978
2026-01-07 12:57:04.120000+00:00,-0.032967,-0.032967
2026-01-07 12:57:04.124000+00:00,-0.032967,-0.032967
2026-01-07 12:57:04.128000+00:00,-0.032967,-0.032967
2026-01-07 12:57:04.132000+00:00,-0.043956,-0.032967
2026-01-07 12:57:04.136000+00:00,-0.032967,-0.032967
2026-01-07 12:57:04.140000+00:00,-0.032967,-0.021978
2026-01-07 12:57:04.144000+00:00,-0.032967,-0.032967
2026-01-07 12:57:04.148000+00:00,-0.032967,-0.032967
2026-01-07 12:57:04.152000+00:00,-0.043956,-0.021978
2026-01-07 12:57:04.156000+00:00,-0.021978,-0.010989
2026-01-07 12:57:04.160000+00:00,-0.010989,-0.010989
2026-01-07 12:57:04.163000+00:00,0.0,0.0
2026-01-07 12:57:04.167000+00:00,0.010989,0.0
2026-01-07 12:57:04.171000+00:00,0.0,0.010989
2026-01-07 12:57:04.175000+00:00,-0.010989,0.010989
2026-01-07 12:57:04.179000+00:00,0.010989,0.021978
2026-01-07 12:57:04.183000+00:00,0.021978,0.021978
2026-01-07 12:57:04.187000+00:00,0.010989,0.021978
2026-01-07 12:57:04.191000+00:00,0.010989,0.021978
2026-01-07 12:57:04.195000+00:00,0.021978,0.021978
2026-01-07 12:57:04.199000+00:00,0.021978,0.021978
2026-01-07 12:57:04.203000+00:00,0.021978,0.032967
2026-01-07 12:57:04.206000+00:00,0.021978,0.032967
2026-01-07 12:57:04.210000+00:00,0.021978,0.032967
2026-01-07 12:57:04.214000+00:00,0.032967,0.032967
2026-01-07 12:57:04.218000+00:00,0.032967,0.043956
2026-01-07 12:57:04.222000+00:00,0.032967,0.032967
2026-01-07 12:57:04.226000+00:00,0.032967,0.032967
2026-01-07 12:57:04.230000+00:00,0.032967,0.021978
2026-01-07 12:57:04.234000+00:00,0.032967,0.043956
2026-01-07 12:57:04.238000+00:00,0.021978,0.043956
2026-01-07 12:57:04.242000+00:00,0.032967,0.043956
2026-01-07 12:57:04.245000+00:00,0.032967,0.043956
2026-01-07 12:57:04.249000+00:00,0.032967,0.043956
2026-01-07 12:57:04.253000+00:00,0.021978,0.032967
2026-01-07 12:57:04.257000+00:00,0.032967,0.032967
2026-01-07 12:57:04.261000+00:00,0.032967,0.032967
2026-01-07 12:57:04.265000+00:00,0.032967,0.043956
2026-01-07 12:57:04.269000+00:00,0.032967,0.043956
2026-01-07 12:57:04.273000+00:00,0.032967,0.032967
2026-01-07 12:57:04.277000+00:00,0.043956,0.043956
2026-01-07 12:57:04.281000+00:00,0.032967,0.032967
2026-01-07 12:57:04.285000+00:00,0.021978,0.032967
2026-01-07 12:57:04.288000+00:00,0.021978,0.021978
2026-01-07 12:57:04.292000+00:00,0.021978,0.032967
2026-01-07 12:57:04.296000+00:00,0.032967,0.032967
2026-01-07 12:57:04.300000+00:00,0.021978,0.032967
2026-01-07 12:57:04.304000+00:00,0.021978,0.021978
2026-01-07 12:57:04.308000+00:00,0.021978,0.021978
2026-01-07 12:57:04.312000+00:00,0.021978,0.043956
2026-01-07 12:57:04.316000+00:00,0.032967,0.043956
2026-01-07 12:57:04.320000+00:00,0.021978,0.032967
2026-01-07 12:57:04.324000+00:00,0.032967,0.021978
2026-01-07 12:57:04.328000+00:00,0.032967,0.021978
2026-01-07 12:57:04.331000+00:00,0.021978,0.021978
2026-01-07 12:57:04.335000+00:00,0.021978,0.032967
2026-01-07 12:57:04.339000+00:00,0.021978,0.032967
2026-01-07 12:57:04.343000+00:00,0.032967,0.032967
2026-01-07 12:57:04.347000+00:00,0.021978,0.032967
2026-01-07 12:57:04.351000+00:00,0.021978,0.032967
2026-01-07 12:57:04.355000+00:00,0.021978,0.032967
2026-01-07 12:57:04.359000+00:00,0.021978,0.032967
2026-01-07 12:57:04.363000+00:00,0.032967,0.021978
2026-01-07 12:57:04.367000+00:00,0.021978,0.032967
2026-01-07 12:57:04.370000+00:00,0.021978,0.032967
2026-01-07 12:57:04.374000+00:00,0.021978,0.032967
2026-01-07 12:57:04.378000+00:00,0.021978,0.032967
2026-01-07 12:57:04.382000+00:00,0.021978,0.032967
2026-01-07 12:57:04.386000+00:00,0.021978,0.010989
2026-01-07 12:57:04.390000+00:00,0.032967,0.021978
2026-01-07 12:57:04.394000+00:00,0.032967,0.021978
2026-01-07 12:57:04.398000+00:00,0.032967,0.032967
2026-01-07 12:57:04.402000+00:00,0.021978,0.043956
2026-01-07 12:57:04.406000+00:00,0.010989,0.032967
2026-01-07 12:57:04.410000+00:00,0.021978,0.032967
2026-01-07 12:57:04.413000+00:00,0.021978,0.032967
2026-01-07 12:57:04.417000+00:00,0.043956,0.032967
2026-01-07 12:57:04.421000+00:00,0.054945,0.043956
2026-01-07 12:57:04.425000+00:00,0.043956,0.043956
2026-01-07 12:57:04.429000+00:00,0.021978,0.043956
2026-01-07 12:57:04.433000+00:00,0.021978,0.032967
2026-01-07 12:57:04.437000+00:00,0.021978,0.043956
2026-01-07 12:57:04.441000+00:00,0.021978,0.043956
2026-01-07 12:57:04.445000+00:00,0.021978,0.043956
2026-01-07 12:57:04.449000+00:00,0.021978,0.032967
2026-01-07 12:57:04.453000+00:00,0.021978,0.032967
2026-01-07 12:57:04.456000+00:00,0.032967,0.032967
2026-01-07 12:57:04.460000+00:00,0.032967,0.021978
2026-01-07 12:57:04.464000+00:00,0.032967,0.032967
2026-01-07 12:57:04.468000+00:00,0.032967,0.032967
2026-01-07 12:57:04.472000+00:00,0.032967,0.032967
2026-01-07 12:57:04.476000+00:00,0.043956,0.043956
2026-01-07 12:57:04.480000+00:00,0.032967,0.043956
2026-01-07 12:57:04.484000+00:00,0.021978,0.043956
2026-01-07 12:57:04.488000+00:00,0.021978,0.032967
2026-01-07 12:57:04.492000+00:00,0.032967,0.021978
2026-01-07 12:57:04.495000+00:00,0.032967,0.032967
2026-01-07 12:57:04.499000+00:00,0.032967,0.032967
2026-01-07 12:57:04.503000+00:00,0.021978,0.032967
2026-01-07 12:57:04.507000+00:00,0.021978,0.032967
2026-01-07 12:57:04.511000+00:00,0.021978,0.043956
2026-01-07 12:57:04.515000+00:00,0.021978,0.043956
2026-01-07 12:57:04.519000+00:00,0.032967,0.032967
2026-01-07 12:57:04.523000+00:00,0.032967,0.032967
2026-01-07 12:57:04.527000+00:00,0.021978,0.032967
2026-01-07 12:57:04.531000+00:00,0.010989,0.032967
2026-01-07 12:57:04.535000+00:00,0.010989,0.032967
2026-01-07 12:57:04.538000+00:00,0.021978,0.032967
2026-01-07 12:57:04.542000+00:00,0.032967,0.043956
2026-01-07 12:57:04.546000+00:00,0.043956,0.043956
2026-01-07 12:57:04.550000+00:00,0.032967,0.032967
2026-01-07 12:57:04.554000+00:00,0.021978,0.032967
2026-01-07 12:57:04.558000+00:00,0.032967,0.043956
2026-01-07 12:57:04.562000+00:00,0.032967,0.032967
2026-01-07 12:57:04.566000+00:00,0.032967,0.043956
2026-01-07 12:57:04.570000+00:00,0.032967,0.043956
2026-01-07 12:57:04.574000+00:00,0.032967,0.032967
2026-01-07 12:57:04.578000+00:00,0.021978,0.043956
2026-01-07 12:57:04.581000+00:00,0.010989,0.032967
2026-01-07 12:57:04.585000+00:00,0.010989,0.043956
2026-01-07 12:57:04.589000+00:00,0.021978,0.043956
2026-01-07 12:57:04.593000+00:00,0.021978,0.043956
2026-01-07 12:57:04.597000+00:00,0.021978,0.043956
2026-01-07 12:57:04.601000+00:00,0.010989,0.032967
2026-01-07 12:57:04.605000+00:00,0.021978,0.032967
2026-01-07 12:57:04.609000+00:00,0.021978,0.043956
2026-01-07 12:57:04.613000+00:00,0.032967,0.043956
2026-01-07 12:57:04.617000+00:00,0.043956,0.043956
2026-01-07 12:57:04.620000+00:00,0.054945,0.043956
2026-01-07 12:57:04.624000+00:00,0.054945,0.054945
2026-01-07 12:57:04.628000+00:00,0.043956,0.043956
2026-01-07 12:57:04.632000+00:00,0.032967,0.021978
2026-01-07 12:57:04.636000+00:00,0.032967,0.021978
2026-01-07 12:57:04.640000+00:00,0.021978,0.032967
2026-01-07 12:57:04.644000+00:00,0.010989,0.010989
2026-01-07 12:57:04.648000+00:00,0.010989,0.021978
2026-01-07 12:57:04.652000+00:00,0.021978,0.010989
2026-01-07 12:57:04.656000+00:00,0.021978,0.021978
2026-01-07 12:57:04.660000+00:00,0.021978,0.010989
2026-01-07 12:57:04.663000+00:00,0.010989,0.010989
2026-01-07 12:57:04.667000+00:00,0.021978,0.010989
2026-01-07 12:57:04.671000+00:00,0.021978,0.021978
2026-01-07 12:57:04.675000+00:00,0.021978,0.032967
2026-01-07 12:57:04.679000+00:00,0.021978,0.032967
2026-01-07 12:57:04.683000+00:00,0.021978,0.032967
2026-01-07 12:57:04.687000+00:00,0.021978,0.032967
2026-01-07 12:57:04.691000+00:00,0.021978,0.032967
2026-01-07 12:57:04.695000+00:00,0.021978,0.032967
2026-01-07 12:57:04.699000+00:00,0.021978,0.043956
2026-01-07 12:57:04.703000+00:00,0.032967,0.043956
2026-01-07 12:57:04.706000+00:00,0.032967,0.043956
2026-01-07 12:57:04.710000+00:00,0.032967,0.043956
2026-01-07 12:57:04.714000+00:00,0.021978,0.032967
2026-01-07 12:57:04.718000+00:00,0.010989,0.021978
2026-01-07 12:57:04.722000+00:00,-0.010989,0.021978
2026-01-07 12:57:04.726000+00:00,-0.043956,0.0
2026-01-07 12:57:04.730000+00:00,-0.043956,0.021978
2026-01-07 12:57:04.734000+00:00,0.032967,0.120879
2026-01-07 12:57:04.738000+00:00,0.208791,0.274725
2026-01-07 12:57:04.742000+00:00,0.395604,0.428571
2026-01-07 12:57:04.745000+00:00,0.560439,0.582417
2026-01-07 12:57:04.749000+00:00,0.65934,0.65934
2026-01-07 12:57:04.753000+00:00,0.714285,0.648351
2026-01-07 12:57:04.757000+00:00,0.648351,0.538461
2026-01-07 12:57:04.761000+00:00,0.505494,0.351648
2026-01-07 12:57:04.765000+00:00,0.120879,-0.054945
2026-01-07 12:57:04.769000+00:00,-0.285714,-0.417582
2026-01-07 12:57:04.773000+00:00,-0.54945,-0.615384
2026-01-07 12:57:04.777000+00:00,-0.637362,-0.648351
2026-01-07 12:57:04.781000+00:00,-0.54945,-0.527472
2026-01-07 12:57:04.785000+00:00,-0.417582,-0.362637
2026-01-07 12:57:04.788000+00:00,-0.274725,-0.21978
2026-01-07 12:57:04.792000+00:00,-0.175824,-0.10989
2026-01-07 12:57:04.796000+00:00,-0.120879,-0.032967
2026-01-07 12:57:04.800000+00:00,-0.076923,0.0
2026-01-07 12:57:04.804000+00:00,-0.054945,0.021978
2026-01-07 12:57:04.808000+00:00,-0.043956,0.021978
2026-01-07 12:57:04.812000+00:00,-0.021978,0.021978
2026-01-07 12:57:04.816000+00:00,-0.010989,0.021978
2026-01-07 12:57:04.820000+00:00,0.0,0.043956
2026-01-07 12:57:04.824000+00:00,0.010989,0.043956
2026-01-07 12:57:04.828000+00:00,0.010989,0.043956
2026-01-07 12:57:04.831000+00:00,0.021978,0.032967
2026-01-07 12:57:04.835000+00:00,0.021978,0.032967
2026-01-07 12:57:04.839000+00:00,0.032967,0.032967
2026-01-07 12:57:04.843000+00:00,0.043956,0.043956
2026-01-07 12:57:04.847000+00:00,0.032967,0.054945
2026-01-07 12:57:04.851000+00:00,0.032967,0.043956
2026-01-07 12:57:04.855000+00:00,0.043956,0.054945
2026-01-07 12:57:04.859000+00:00,0.032967,0.054945
2026-01-07 12:57:04.863000+00:00,0.032967,0.054945
2026-01-07 12:57:04.867000+00:00,0.032967,0.043956
2026-01-07 12:57:04.870000+00:00,0.032967,0.043956
2026-01-07 12:57:04.874000+00:00,0.021978,0.043956
2026-01-07 12:57:04.878000+00:00,0.021978,0.043956
2026-01-07 12:57:04.882000+00:00,0.032967,0.043956
2026-01-07 12:57:04.886000+00:00,0.043956,0.043956
2026-01-07 12:57:04.890000+00:00,0.043956,0.043956
2026-01-07 12:57:04.894000+00:00,0.043956,0.043956
2026-01-07 12:57:04.898000+00:00,0.043956,0.043956
2026-01-07 12:57:04.902000+00:00,0.043956,0.043956
2026-01-07 12:57:04.906000+00:00,0.043956,0.043956
2026-01-07 12:57:04.910000+00:00,0.043956,0.054945
2026-01-07 12:57:04.913000+00:00,0.043956,0.043956
2026-01-07 12:57:04.917000+00:00,0.032967,0.043956
2026-01-07 12:57:04.921000+00:00,0.043956,0.054945
2026-01-07 12:57:04.925000+00:00,0.054945,0.043956
2026-01-07 12:57:04.929000+00:00,0.054945,0.054945
2026-01-07 12:57:04.933000+00:00,0.065934,0.054945
2026-01-07 12:57:04.937000+00:00,0.065934,0.065934
2026-01-07 12:57:04.941000+00:00,0.065934,0.065934
2026-01-07 12:57:04.945000+00:00,0.065934,0.065934
2026-01-07 12:57:04.949000+00:00,0.065934,0.065934
2026-01-07 12:57:04.953000+00:00,0.065934,0.065934
2026-01-07 12:57:04.956000+00:00,0.065934,0.065934
2026-01-07 12:57:04.960000+00:00,0.054945,0.065934
2026-01-07 12:57:04.964000+00:00,0.054945,0.054945
2026-01-07 12:57:04.968000+00:00,0.043956,0.043956
2026-01-07 12:57:04.972000+00:00,0.043956,0.043956
2026-01-07 12:57:04.976000+00:00,0.032967,0.032967
2026-01-07 12:57:04.980000+00:00,0.021978,0.032967
2026-01-07 12:57:04.984000+00:00,0.021978,0.032967
2026-01-07 12:57:04.988000+00:00,0.010989,0.010989
2026-01-07 12:57:04.992000+00:00,0.0,0.010989
2026-01-07 12:57:04.995000+00:00,0.0,0.0
2026-01-07 12:57:04.999000+00:00,-0.010989,0.0
2026-01-07 12:57:05.003000+00:00,-0.010989,-0.010989
2026-01-07 12:57:05.007000+00:00,-0.021978,-0.021978
2026-01-07 12:57:05.011000+00:00,-0.032967,-0.021978
2026-01-07 12:57:05.015000+00:00,-0.043956,-0.021978
2026-01-07 12:57:05.019000+00:00,-0.054945,-0.032967
2026-01-07 12:57:05.023000+00:00,-0.054945,-0.032967
2026-01-07 12:57:05.027000+00:00,-0.043956,-0.032967
2026-01-07 12:57:05.031000+00:00,-0.043956,-0.032967
2026-01-07 12:57:05.035000+00:00,-0.032967,-0.032967
2026-01-07 12:57:05.038000+00:00,-0.032967,-0.032967
2026-01-07 12:57:05.042000+00:00,-0.021978,-0.021978
2026-01-07 12:57:05.046000+00:00,-0.010989,-0.021978
2026-01-07 12:57:05.050000+00:00,-0.010989,-0.010989
2026-01-07 12:57:05.054000+00:00,0.0,-0.010989
2026-01-07 12:57:05.058000+00:00,0.0,-0.010989
2026-01-07 12:57:05.062000+00:00,-0.010989,0.010989
2026-01-07 12:57:05.066000+00:00,0.0,0.010989
2026-01-07 12:57:05.070000+00:00,0.010989,0.021978
2026-01-07 12:57:05.074000+00:00,0.010989,0.021978
2026-01-07 12:57:05.078000+00:00,0.010989,0.021978
2026-01-07 12:57:05.081000+00:00,0.010989,0.010989
2026-01-07 12:57:05.085000+00:00,0.021978,0.021978
2026-01-07 12:57:05.089000+00:00,0.032967,0.021978
2026-01-07 12:57:05.093000+00:00,0.032967,0.032967
2026-01-07 12:57:05.097000+00:00,0.032967,0.032967
2026-01-07 12:57:05.101000+00:00,0.032967,0.032967
2026-01-07 12:57:05.105000+00:00,0.032967,0.032967
2026-01-07 12:57:05.109000+00:00,0.021978,0.032967
2026-01-07 12:57:05.113000+00:00,0.032967,0.032967
2026-01-07 12:57:05.117000+00:00,0.032967,0.032967
2026-01-07 12:57:05.120000+00:00,0.032967,0.043956
2026-01-07 12:57:05.124000+00:00,0.043956,0.032967
2026-01-07 12:57:05.128000+00:00,0.032967,0.032967
2026-01-07 12:57:05.132000+00:00,0.032967,0.032967
2026-01-07 12:57:05.136000+00:00,0.032967,0.032967
2026-01-07 12:57:05.140000+00:00,0.032967,0.032967
2026-01-07 12:57:05.144000+00:00,0.032967,0.032967
2026-01-07 12:57:05.148000+00:00,0.032967,0.032967
2026-01-07 12:57:05.152000+00:00,0.032967,0.032967
2026-01-07 12:57:05.156000+00:00,0.032967,0.043956
2026-01-07 12:57:05.160000+00:00,0.032967,0.043956
2026-01-07 12:57:05.163000+00:00,0.021978,0.032967
2026-01-07 12:57:05.167000+00:00,0.021978,0.032967
2026-01-07 12:57:05.171000+00:00,0.032967,0.043956
2026-01-07 12:57:05.175000+00:00,0.032967,0.032967
2026-01-07 12:57:05.179000+00:00,0.021978,0.032967
2026-01-07 12:57:05.183000+00:00,0.032967,0.032967
2026-01-07 12:57:05.187000+00:00,0.021978,0.032967
2026-01-07 12:57:05.191000+00:00,0.021978,0.021978
2026-01-07 12:57:05.195000+00:00,0.021978,0.032967
2026-01-07 12:57:05.199000+00:00,0.021978,0.032967
2026-01-07 12:57:05.203000+00:00,0.021978,0.032967
2026-01-07 12:57:05.206000+00:00,0.021978,0.032967
2026-01-07 12:57:05.210000+00:00,0.021978,0.032967
2026-01-07 12:57:05.214000+00:00,0.021978,0.021978
2026-01-07 12:57:05.218000+00:00,0.021978,0.032967
2026-01-07 12:57:05.222000+00:00,0.032967,0.032967
2026-01-07 12:57:05.226000+00:00,0.032967,0.032967
2026-01-07 12:57:05.230000+00:00,0.021978,0.032967
2026-01-07 12:57:05.234000+00:00,0.021978,0.032967
2026-01-07 12:57:05.238000+00:00,0.021978,0.032967
2026-01-07 12:57:05.242000+00:00,0.021978,0.021978
2026-01-07 12:57:05.245000+00:00,0.032967,0.032967
2026-01-07 12:57:05.249000+00:00,0.021978,0.032967
2026-01-07 12:57:05.253000+00:00,0.021978,0.032967
2026-01-07 12:57:05.257000+00:00,0.032967,0.032967
2026-01-07 12:57:05.261000+00:00,0.032967,0.032967
2026-01-07 12:57:05.265000+00:00,0.032967,0.032967
2026-01-07 12:57:05.269000+00:00,0.032967,0.021978
2026-01-07 12:57:05.273000+00:00,0.021978,0.032967
2026-01-07 12:57:05.277000+00:00,0.032967,0.021978
2026-01-07 12:57:05.281000+00:00,0.021978,0.021978
2026-01-07 12:57:05.285000+00:00,0.032967,0.021978
2026-01-07 12:57:05.288000+00:00,0.021978,0.032967
2026-01-07 12:57:05.292000+00:00,0.021978,0.021978
2026-01-07 12:57:05.296000+00:00,0.032967,0.021978
2026-01-07 12:57:05.300000+00:00,0.032967,0.021978
2026-01-07 12:57:05.304000+00:00,0.032967,0.032967
2026-01-07 12:57:05.308000+00:00,0.021978,0.032967
2026-01-07 12:57:05.312000+00:00,0.021978,0.021978
2026-01-07 12:57:05.316000+00:00,0.032967,0.021978
2026-01-07 12:57:05.320000+00:00,0.032967,0.032967
2026-01-07 12:57:05.324000+00:00,0.032967,0.032967
2026-01-07 12:57:05.328000+00:00,0.021978,0.032967
2026-01-07 12:57:05.331000+00:00,0.032967,0.032967
2026-01-07 12:57:05.335000+00:00,0.032967,0.032967
2026-01-07 12:57:05.339000+00:00,0.032967,0.032967
2026-01-07 12:57:05.343000+00:00,0.021978,0.032967
2026-01-07 12:57:05.347000+00:00,0.021978,0.043956
2026-01-07 12:57:05.351000+00:00,0.032967,0.032967
2026-01-07 12:57:05.355000+00:00,0.032967,0.032967
2026-01-07 12:57:05.359000+00:00,0.021978,0.032967
2026-01-07 12:57:05.363000+00:00,0.032967,0.032967
2026-01-07 12:57:05.367000+00:00,0.032967,0.032967
2026-01-07 12:57:05.370000+00:00,0.032967,0.032967
2026-01-07 12:57:05.374000+00:00,0.021978,0.032967
2026-01-07 12:57:05.378000+00:00,0.021978,0.032967
2026-01-07 12:57:05.382000+00:00,0.021978,0.032967
2026-01-07 12:57:05.386000+00:00,0.032967,0.032967
2026-01-07 12:57:05.390000+00:00,0.032967,0.032967
2026-01-07 12:57:05.394000+00:00,0.032967,0.021978
2026-01-07 12:57:05.398000+00:00,0.021978,0.032967
2026-01-07 12:57:05.402000+00:00,0.021978,0.043956
2026-01-07 12:57:05.406000+00:00,0.032967,0.032967
2026-01-07 12:57:05.410000+00:00,0.032967,0.043956
2026-01-07 12:57:05.413000+00:00,0.032967,0.043956
2026-01-07 12:57:05.417000+00:00,0.032967,0.032967
2026-01-07 12:57:05.421000+00:00,0.032967,0.032967
2026-01-07 12:57:05.425000+00:00,0.032967,0.032967
2026-01-07 12:57:05.429000+00:00,0.032967,0.032967
2026-01-07 12:57:05.433000+00:00,0.032967,0.032967
2026-01-07 12:57:05.437000+00:00,0.032967,0.032967
2026-01-07 12:57:05.441000+00:00,0.043956,0.032967
2026-01-07 12:57:05.445000+00:00,0.032967,0.032967
2026-01-07 12:57:05.449000+00:00,0.032967,0.032967
2026-01-07 12:57:05.453000+00:00,0.032967,0.021978
2026-01-07 12:57:05.456000+00:00,0.032967,0.032967
2026-01-07 12:57:05.460000+00:00,0.021978,0.032967
2026-01-07 12:57:05.464000+00:00,0.032967,0.043956
2026-01-07 12:57:05.468000+00:00,0.032967,0.032967
2026-01-07 12:57:05.472000+00:00,0.032967,0.054945
2026-01-07 12:57:05.476000+00:00,0.032967,0.043956
2026-01-07 12:57:05.480000+00:00,0.032967,0.054945
2026-01-07 12:57:05.484000+00:00,0.032967,0.054945
2026-01-07 12:57:05.488000+00:00,0.021978,0.043956
2026-01-07 12:57:05.492000+00:00,0.021978,0.043956
2026-01-07 12:57:05.495000+00:00,0.032967,0.043956
2026-01-07 12:57:05.499000+00:00,0.032967,0.032967
2026-01-07 12:57:05.503000+00:00,0.032967,0.032967
2026-01-07 12:57:05.507000+00:00,0.032967,0.032967
2026-01-07 12:57:05.511000+00:00,0.043956,0.032967
2026-01-07 12:57:05.515000+00:00,0.054945,0.032967
2026-01-07 12:57:05.519000+00:00,0.065934,0.043956
2026-01-07 12:57:05.523000+00:00,0.054945,0.043956
2026-01-07 12:57:05.527000+00:00,0.054945,0.043956
2026-01-07 12:57:05.531000+00:00,0.054945,0.032967
2026-01-07 12:57:05.535000+00:00,0.054945,0.032967
2026-01-07 12:57:05.538000+00:00,0.032967,0.032967
2026-01-07 12:57:05.542000+00:00,0.032967,0.021978
2026-01-07 12:57:05.546000+00:00,0.021978,0.010989
2026-01-07 12:57:05.550000+00:00,0.021978,0.021978
2026-01-07 12:57:05.554000+00:00,0.021978,0.010989
2026-01-07 12:57:05.558000+00:00,0.021978,0.021978
2026-01-07 12:57:05.562000+00:00,0.021978,0.032967
2026-01-07 12:57:05.566000+00:00,0.021978,0.021978
2026-01-07 12:57:05.570000+00:00,0.032967,0.021978
2026-01-07 12:57:05.574000+00:00,0.032967,0.032967
2026-01-07 12:57:05.578000+00:00,0.032967,0.032967
2026-01-07 12:57:05.581000+00:00,0.032967,0.021978
2026-01-07 12:57:05.585000+00:00,0.032967,0.032967
2026-01-07 12:57:05.589000+00:00,0.032967,0.032967
2026-01-07 12:57:05.593000+00:00,0.032967,0.043956
2026-01-07 12:57:05.597000+00:00,0.032967,0.043956
2026-01-07 12:57:05.601000+00:00,0.032967,0.043956
2026-01-07 12:57:05.605000+00:00,0.043956,0.043956
2026-01-07 12:57:05.609000+00:00,0.043956,0.032967
2026-01-07 12:57:05.613000+00:00,0.032967,0.032967
2026-01-07 12:57:05.617000+00:00,0.021978,0.032967
2026-01-07 12:57:05.620000+00:00,-0.010989,0.010989
2026-01-07 12:57:05.624000+00:00,-0.054945,0.0
2026-01-07 12:57:05.628000+00:00,-0.043956,0.021978
2026-01-07 12:57:05.632000+00:00,0.021978,0.098901
2026-01-07 12:57:05.636000+00:00,0.197802,0.252747
2026-01-07 12:57:05.640000+00:00,0.395604,0.43956
2026-01-07 12:57:05.644000+00:00,0.593406,0.626373
2026-01-07 12:57:05.648000+00:00,0.780219,0.736263
2026-01-07 12:57:05.652000+00:00,0.87912,0.791208
2026-01-07 12:57:05.656000+00:00,0.901098,0.725274
2026-01-07 12:57:05.660000+00:00,0.747252,0.505494
2026-01-07 12:57:05.663000+00:00,0.296703,0.076923
2026-01-07 12:57:05.667000+00:00,-0.263736,-0.406593
2026-01-07 12:57:05.671000+00:00,-0.65934,-0.725274
2026-01-07 12:57:05.675000+00:00,-0.835164,-0.835164
2026-01-07 12:57:05.679000+00:00,-0.703296,-0.648351
2026-01-07 12:57:05.683000+00:00,-0.505494,-0.43956
2026-01-07 12:57:05.687000+00:00,-0.340659,-0.252747
2026-01-07 12:57:05.691000+00:00,-0.230769,-0.131868
2026-01-07 12:57:05.695000+00:00,-0.164835,-0.054945
2026-01-07 12:57:05.699000+00:00,-0.120879,-0.032967
2026-01-07 12:57:05.703000+00:00,-0.087912,-0.021978
2026-01-07 12:57:05.706000+00:00,-0.065934,-0.010989
2026-01-07 12:57:05.710000+00:00,-0.043956,0.0
2026-01-07 12:57:05.714000+00:00,-0.032967,0.010989
2026-01-07 12:57:05.718000+00:00,-0.010989,0.021978
2026-01-07 12:57:05.722000+00:00,0.0,0.032967
2026-01-07 12:57:05.726000+00:00,0.021978,0.032967
2026-01-07 12:57:05.730000+00:00,0.021978,0.032967
2026-01-07 12:57:05.734000+00:00,0.032967,0.043956
2026-01-07 12:57:05.738000+00:00,0.032967,0.043956
2026-01-07 12:57:05.742000+00:00,0.032967,0.043956
2026-01-07 12:57:05.745000+00:00,0.032967,0.043956
2026-01-07 12:57:05.749000+00:00,0.032967,0.043956
2026-01-07 12:57:05.753000+00:00,0.043956,0.043956
2026-01-07 12:57:05.757000+00:00,0.043956,0.043956
2026-01-07 12:57:05.761000+00:00,0.043956,0.043956
2026-01-07 12:57:05.765000+00:00,0.043956,0.043956
2026-01-07 12:57:05.769000+00:00,0.043956,0.043956
2026-01-07 12:57:05.773000+00:00,0.032967,0.043956
2026-01-07 12:57:05.777000+00:00,0.043956,0.054945
2026-01-07 12:57:05.781000+00:00,0.043956,0.054945
2026-01-07 12:57:05.785000+00:00,0.043956,0.043956
2026-01-07 12:57:05.788000+00:00,0.043956,0.054945
2026-01-07 12:57:05.792000+00:00,0.043956,0.054945
2026-01-07 12:57:05.796000+00:00,0.032967,0.043956
2026-01-07 12:57:05.800000+00:00,0.032967,0.043956
2026-01-07 12:57:05.804000+00:00,0.043956,0.043956
2026-01-07 12:57:05.808000+00:00,0.043956,0.054945
2026-01-07 12:57:05.812000+00:00,0.043956,0.043956
2026-01-07 12:57:05.816000+00:00,0.043956,0.043956
2026-01-07 12:57:05.820000+00:00,0.043956,0.054945
2026-01-07 12:57:05.824000+00:00,0.054945,0.054945
2026-01-07 12:57:05.828000+00:00,0.054945,0.065934
2026-01-07 12:57:05.831000+00:00,0.065934,0.065934
2026-01-07 12:57:05.835000+00:00,0.054945,0.065934
2026-01-07 12:57:05.839000+00:00,0.054945,0.076923
2026-01-07 12:57:05.843000+00:00,0.054945,0.076923
2026-01-07 12:57:05.847000+00:00,0.065934,0.076923
2026-01-07 12:57:05.851000+00:00,0.065934,0.076923
2026-01-07 12:57:05.855000+00:00,0.065934,0.065934
2026-01-07 12:57:05.859000+00:00,0.065934,0.065934
2026-01-07 12:57:05.863000+00:00,0.065934,0.065934
2026-01-07 12:57:05.867000+00:00,0.065934,0.065934
2026-01-07 12:57:05.870000+00:00,0.054945,0.054945
2026-01-07 12:57:05.874000+00:00,0.043956,0.054945
2026-01-07 12:57:05.878000+00:00,0.032967,0.032967
2026-01-07 12:57:05.882000+00:00,0.032967,0.043956
2026-01-07 12:57:05.886000+00:00,0.021978,0.032967
2026-01-07 12:57:05.890000+00:00,0.021978,0.021978
2026-01-07 12:57:05.894000+00:00,0.010989,0.021978
2026-01-07 12:57:05.898000+00:00,0.010989,0.010989
2026-01-07 12:57:05.902000+00:00,0.0,0.0
2026-01-07 12:57:05.906000+00:00,-0.021978,-0.010989
2026-01-07 12:57:05.910000+00:00,-0.021978,-0.032967
2026-01-07 12:57:05.913000+00:00,-0.032967,-0.032967
2026-01-07 12:57:05.917000+00:00,-0.043956,-0.043956
2026-01-07 12:57:05.921000+00:00,-0.043956,-0.032967
2026-01-07 12:57:05.925000+00:00,-0.043956,-0.043956
2026-01-07 12:57:05.929000+00:00,-0.043956,-0.043956
2026-01-07 12:57:05.933000+00:00,-0.032967,-0.032967
2026-01-07 12:57:05.937000+00:00,-0.032967,-0.032967
2026-01-07 12:57:05.941000+00:00,-0.021978,-0.032967
2026-01-07 12:57:05.945000+00:00,-0.021978,-0.021978
2026-01-07 12:57:05.949000+00:00,-0.021978,-0.021978
2026-01-07 12:57:05.953000+00:00,-0.010989,-0.010989
2026-01-07 12:57:05.956000+00:00,-0.010989,0.0
2026-01-07 12:57:05.960000+00:00,0.0,0.010989
2026-01-07 12:57:05.964000+00:00,0.010989,0.010989
2026-01-07 12:57:05.968000+00:00,0.010989,0.010989
2026-01-07 12:57:05.972000+00:00,0.010989,0.010989
2026-01-07 12:57:05.976000+00:00,0.010989,0.010989
2026-01-07 12:57:05.980000+00:00,0.021978,0.021978
2026-01-07 12:57:05.984000+00:00,0.021978,0.021978
2026-01-07 12:57:05.988000+00:00,0.021978,0.032967
2026-01-07 12:57:05.992000+00:00,0.032967,0.021978
2026-01-07 12:57:05.995000+00:00,0.021978,0.032967
2026-01-07 12:57:05.999000+00:00,0.021978,0.032967
2026-01-07 12:57:06.003000+00:00,0.032967,0.032967
2026-01-07 12:57:06.007000+00:00,0.032967,0.032967
2026-01-07 12:57:06.011000+00:00,0.032967,0.043956
2026-01-07 12:57:06.015000+00:00,0.043956,0.032967
2026-01-07 12:57:06.019000+00:00,0.032967,0.032967
2026-01-07 12:57:06.023000+00:00,0.043956,0.043956
2026-01-07 12:57:06.027000+00:00,0.043956,0.032967
2026-01-07 12:57:06.031000+00:00,0.043956,0.043956
2026-01-07 12:57:06.035000+00:00,0.043956,0.043956
2026-01-07 12:57:06.038000+00:00,0.043956,0.043956
2026-01-07 12:57:06.042000+00:00,0.043956,0.043956
2026-01-07 12:57:06.046000+00:00,0.043956,0.043956
2026-01-07 12:57:06.050000+00:00,0.043956,0.043956
2026-01-07 12:57:06.054000+00:00,0.032967,0.043956
2026-01-07 12:57:06.058000+00:00,0.043956,0.032967
2026-01-07 12:57:06.062000+00:00,0.043956,0.043956
2026-01-07 12:57:06.066000+00:00,0.043956,0.043956
2026-01-07 12:57:06.070000+00:00,0.032967,0.032967
2026-01-07 12:57:06.074000+00:00,0.032967,0.043956
2026-01-07 12:57:06.078000+00:00,0.032967,0.043956
2026-01-07 12:57:06.081000+00:00,0.043956,0.043956
2026-01-07 12:57:06.085000+00:00,0.032967,0.043956
2026-01-07 12:57:06.089000+00:00,0.032967,0.032967
2026-01-07 12:57:06.093000+00:00,0.032967,0.032967
2026-01-07 12:57:06.097000+00:00,0.032967,0.032967
2026-01-07 12:57:06.101000+00:00,0.021978,0.032967
2026-01-07 12:57:06.105000+00:00,0.021978,0.032967
2026-01-07 12:57:06.109000+00:00,0.021978,0.043956
2026-01-07 12:57:06.113000+00:00,0.021978,0.032967
2026-01-07 12:57:06.117000+00:00,0.021978,0.032967
2026-01-07 12:57:06.120000+00:00,0.021978,0.032967
2026-01-07 12:57:06.124000+00:00,0.021978,0.021978
2026-01-07 12:57:06.128000+00:00,0.021978,0.021978
2026-01-07 12:57:06.132000+00:00,0.032967,0.032967
2026-01-07 12:57:06.136000+00:00,0.021978,0.043956
2026-01-07 12:57:06.140000+00:00,0.021978,0.032967
2026-01-07 12:57:06.144000+00:00,0.021978,0.032967
2026-01-07 12:57:06.148000+00:00,0.021978,0.032967
2026-01-07 12:57:06.152000+00:00,0.032967,0.021978
2026-01-07 12:57:06.156000+00:00,0.021978,0.021978
2026-01-07 12:57:06.160000+00:00,0.021978,0.032967
2026-01-07 12:57:06.163000+00:00,0.021978,0.032967
2026-01-07 12:57:06.167000+00:00,0.032967,0.032967
2026-01-07 12:57:06.171000+00:00,0.032967,0.032967
2026-01-07 12:57:06.175000+00:00,0.021978,0.032967
2026-01-07 12:57:06.179000+00:00,0.021978,0.032967
2026-01-07 12:57:06.183000+00:00,0.032967,0.032967
2026-01-07 12:57:06.187000+00:00,0.021978,0.043956
2026-01-07 12:57:06.191000+00:00,0.021978,0.032967
2026-01-07 12:57:06.195000+00:00,0.032967,0.032967
2026-01-07 12:57:06.199000+00:00,0.021978,0.032967
2026-01-07 12:57:06.203000+00:00,0.032967,0.043956
2026-01-07 12:57:06.206000+00:00,0.032967,0.043956
2026-01-07 12:57:06.210000+00:00,0.032967,0.043956
2026-01-07 12:57:06.214000+00:00,0.032967,0.032967
2026-01-07 12:57:06.218000+00:00,0.032967,0.021978
2026-01-07 12:57:06.222000+00:00,0.021978,0.021978
2026-01-07 12:57:06.226000+00:00,0.021978,0.032967
2026-01-07 12:57:06.230000+00:00,0.021978,0.032967
2026-01-07 12:57:06.234000+00:00,0.032967,0.032967
2026-01-07 12:57:06.238000+00:00,0.032967,0.032967
2026-01-07 12:57:06.242000+00:00,0.021978,0.032967
2026-01-07 12:57:06.245000+00:00,0.032967,0.043956
2026-01-07 12:57:06.249000+00:00,0.021978,0.032967
2026-01-07 12:57:06.253000+00:00,0.021978,0.032967
2026-01-07 12:57:06.257000+00:00,0.032967,0.032967
2026-01-07 12:57:06.261000+00:00,0.032967,0.032967
2026-01-07 12:57:06.265000+00:00,0.032967,0.032967
2026-01-07 12:57:06.269000+00:00,0.021978,0.032967
2026-01-07 12:57:06.273000+00:00,0.021978,0.032967
2026-01-07 12:57:06.277000+00:00,0.032967,0.021978
2026-01-07 12:57:06.281000+00:00,0.032967,0.032967
2026-01-07 12:57:06.285000+00:00,0.032967,0.032967
2026-01-07 12:57:06.288000+00:00,0.021978,0.032967
2026-01-07 12:57:06.292000+00:00,0.021978,0.032967
2026-01-07 12:57:06.296000+00:00,0.021978,0.032967
2026-01-07 12:57:06.300000+00:00,0.021978,0.032967
2026-01-07 12:57:06.304000+00:00,0.032967,0.032967
2026-01-07 12:57:06.308000+00:00,0.021978,0.032967
2026-01-07 12:57:06.312000+00:00,0.021978,0.032967
2026-01-07 12:57:06.316000+00:00,0.021978,0.032967
2026-01-07 12:57:06.320000+00:00,0.032967,0.032967
2026-01-07 12:57:06.324000+00:00,0.032967,0.032967
2026-01-07 12:57:06.328000+00:00,0.032967,0.043956
2026-01-07 12:57:06.331000+00:00,0.032967,0.043956
2026-01-07 12:57:06.335000+00:00,0.032967,0.032967
2026-01-07 12:57:06.339000+00:00,0.032967,0.043956
2026-01-07 12:57:06.343000+00:00,0.032967,0.032967
2026-01-07 12:57:06.347000+00:00,0.021978,0.043956
2026-01-07 12:57:06.351000+00:00,0.021978,0.032967
2026-01-07 12:57:06.355000+00:00,0.021978,0.043956
2026-01-07 12:57:06.359000+00:00,0.021978,0.043956
2026-01-07 12:57:06.363000+00:00,0.021978,0.043956
2026-01-07 12:57:06.367000+00:00,0.021978,0.043956
2026-01-07 12:57:06.370000+00:00,0.021978,0.032967
2026-01-07 12:57:06.374000+00:00,0.021978,0.032967
2026-01-07 12:57:06.378000+00:00,0.021978,0.043956
2026-01-07 12:57:06.382000+00:00,0.021978,0.043956
2026-01-07 12:57:06.386000+00:00,0.021978,0.043956
2026-01-07 12:57:06.390000+00:00,0.021978,0.043956
2026-01-07 12:57:06.394000+00:00,0.021978,0.043956
2026-01-07 12:57:06.398000+00:00,0.021978,0.043956
2026-01-07 12:57:06.402000+00:00,0.021978,0.043956
2026-01-07 12:57:06.406000+00:00,0.021978,0.032967
2026-01-07 12:57:06.410000+00:00,0.010989,0.032967
2026-01-07 12:57:06.413000+00:00,0.021978,0.043956
2026-01-07 12:57:06.417000+00:00,0.010989,0.032967
2026-01-07 12:57:06.421000+00:00,0.021978,0.032967
2026-01-07 12:57:06.425000+00:00,0.021978,0.032967
2026-01-07 12:57:06.429000+00:00,0.032967,0.032967
2026-01-07 12:57:06.433000+00:00,0.043956,0.032967
2026-01-07 12:57:06.437000+00:00,0.065934,0.054945
2026-01-07 12:57:06.441000+00:00,0.054945,0.043956
2026-01-07 12:57:06.445000+00:00,0.043956,0.043956
2026-01-07 12:57:06.449000+00:00,0.043956,0.032967
2026-01-07 12:57:06.453000+00:00,0.032967,0.032967
2026-01-07 12:57:06.456000+00:00,0.032967,0.032967
2026-01-07 12:57:06.460000+00:00,0.021978,0.021978
2026-01-07 12:57:06.464000+00:00,0.021978,0.021978
2026-01-07 12:57:06.468000+00:00,0.021978,0.021978
2026-01-07 12:57:06.472000+00:00,0.021978,0.010989
2026-01-07 12:57:06.476000+00:00,0.021978,0.010989
2026-01-07 12:57:06.480000+00:00,0.021978,0.021978
2026-01-07 12:57:06.484000+00:00,0.010989,0.010989
2026-01-07 12:57:06.488000+00:00,0.021978,0.021978
2026-01-07 12:57:06.492000+00:00,0.021978,0.021978
2026-01-07 12:57:06.495000+00:00,0.021978,0.032967
2026-01-07 12:57:06.499000+00:00,0.021978,0.032967
2026-01-07 12:57:06.503000+00:00,0.021978,0.032967
2026-01-07 12:57:06.507000+00:00,0.021978,0.032967
2026-01-07 12:57:06.511000+00:00,0.032967,0.021978
2026-01-07 12:57:06.515000+00:00,0.021978,0.032967
2026-01-07 12:57:06.519000+00:00,0.021978,0.043956
2026-01-07 12:57:06.523000+00:00,0.032967,0.043956
2026-01-07 12:57:06.527000+00:00,0.032967,0.043956
2026-01-07 12:57:06.531000+00:00,0.032967,0.043956
2026-01-07 12:57:06.535000+00:00,0.021978,0.032967
2026-01-07 12:57:06.538000+00:00,-0.010989,0.010989
2026-01-07 12:57:06.542000+00:00,-0.043956,-0.010989
2026-01-07 12:57:06.546000+00:00,-0.054945,0.010989
2026-01-07 12:57:06.550000+00:00,-0.010989,0.076923
2026-01-07 12:57:06.554000+00:00,0.153846,0.230769
2026-01-07 12:57:06.558000+00:00,0.351648,0.406593
2026-01-07 12:57:06.562000+00:00,0.54945,0.582417
2026-01-07 12:57:06.566000+00:00,0.747252,0.725274
2026-01-07 12:57:06.570000+00:00,0.868131,0.780219
2026-01-07 12:57:06.574000+00:00,0.912087,0.747252
2026-01-07 12:57:06.578000+00:00,0.76923,0.54945
2026-01-07 12:57:06.581000+00:00,0.362637,0.142857
2026-01-07 12:57:06.585000+00:00,-0.197802,-0.32967
2026-01-07 12:57:06.589000+00:00,-0.593406,-0.670329
2026-01-07 12:57:06.593000+00:00,-0.824175,-0.835164
2026-01-07 12:57:06.597000+00:00,-0.725274,-0.681318
2026-01-07 12:57:06.601000+00:00,-0.516483,-0.461538
2026-01-07 12:57:06.605000+00:00,-0.351648,-0.274725
2026-01-07 12:57:06.609000+00:00,-0.241758,-0.153846
2026-01-07 12:57:06.613000+00:00,-0.164835,-0.076923
2026-01-07 12:57:06.617000+00:00,-0.120879,-0.032967
2026-01-07 12:57:06.620000+00:00,-0.087912,-0.021978
2026-01-07 12:57:06.624000+00:00,-0.065934,-0.010989
2026-01-07 12:57:06.628000+00:00,-0.043956,0.010989
2026-01-07 12:57:06.632000+00:00,-0.021978,0.010989
2026-01-07 12:57:06.636000+00:00,-0.010989,0.010989
2026-01-07 12:57:06.640000+00:00,0.0,0.021978
2026-01-07 12:57:06.644000+00:00,0.010989,0.032967
2026-01-07 12:57:06.648000+00:00,0.021978,0.032967
2026-01-07 12:57:06.652000+00:00,0.021978,0.032967
2026-01-07 12:57:06.656000+00:00,0.021978,0.032967
2026-01-07 12:57:06.660000+00:00,0.032967,0.043956
2026-01-07 12:57:06.663000+00:00,0.032967,0.043956
2026-01-07 12:57:06.667000+00:00,0.032967,0.043956
2026-01-07 12:57:06.671000+00:00,0.043956,0.043956
2026-01-07 12:57:06.675000+00:00,0.032967,0.043956
2026-01-07 12:57:06.679000+00:00,0.043956,0.043956
2026-01-07 12:57:06.683000+00:00,0.043956,0.043956
2026-01-07 12:57:06.687000+00:00,0.043956,0.054945
2026-01-07 12:57:06.691000+00:00,0.032967,0.054945
2026-01-07 12:57:06.695000+00:00,0.043956,0.054945
2026-01-07 12:57:06.699000+00:00,0.043956,0.043956
2026-01-07 12:57:06.703000+00:00,0.043956,0.054945
2026-01-07 12:57:06.706000+00:00,0.043956,0.054945
2026-01-07 12:57:06.710000+00:00,0.043956,0.054945
2026-01-07 12:57:06.714000+00:00,0.043956,0.043956
2026-01-07 12:57:06.718000+00:00,0.043956,0.054945
2026-01-07 12:57:06.722000+00:00,0.043956,0.054945
2026-01-07 12:57:06.726000+00:00,0.043956,0.065934
2026-01-07 12:57:06.730000+00:00,0.043956,0.065934
2026-01-07 12:57:06.734000+00:00,0.043956,0.065934
2026-01-07 12:57:06.738000+00:00,0.043956,0.065934
2026-01-07 12:57:06.742000+00:00,0.043956,0.065934
2026-01-07 12:57:06.745000+00:00,0.043956,0.065934
2026-01-07 12:57:06.749000+00:00,0.054945,0.076923
2026-01-07 12:57:06.753000+00:00,0.065934,0.076923
2026-01-07 12:57:06.757000+00:00,0.065934,0.076923
2026-01-07 12:57:06.761000+00:00,0.065934,0.076923
2026-01-07 12:57:06.765000+00:00,0.065934,0.076923
2026-01-07 12:57:06.769000+00:00,0.065934,0.076923
2026-01-07 12:57:06.773000+00:00,0.065934,0.076923
2026-01-07 12:57:06.777000+00:00,0.065934,0.065934
2026-01-07 12:57:06.781000+00:00,0.054945,0.076923
2026-01-07 12:57:06.785000+00:00,0.054945,0.065934
2026-01-07 12:57:06.788000+00:00,0.043956,0.054945
2026-01-07 12:57:06.792000+00:00,0.043956,0.054945
2026-01-07 12:57:06.796000+00:00,0.032967,0.043956
2026-01-07 12:57:06.800000+00:00,0.032967,0.032967
2026-01-07 12:57:06.804000+00:00,0.021978,0.032967
2026-01-07 12:57:06.808000+00:00,0.010989,0.021978
2026-01-07 12:57:06.812000+00:00,0.010989,0.021978
2026-01-07 12:57:06.816000+00:00,0.010989,0.010989
2026-01-07 12:57:06.820000+00:00,-0.010989,-0.010989
2026-01-07 12:57:06.824000+00:00,-0.010989,-0.021978
2026-01-07 12:57:06.828000+00:00,-0.021978,-0.021978
2026-01-07 12:57:06.831000+00:00,-0.032967,-0.032967
2026-01-07 12:57:06.835000+00:00,-0.032967,-0.043956
2026-01-07 12:57:06.839000+00:00,-0.043956,-0.043956
2026-01-07 12:57:06.843000+00:00,-0.032967,-0.054945
2026-01-07 12:57:06.847000+00:00,-0.043956,-0.043956
2026-01-07 12:57:06.851000+00:00,-0.032967,-0.043956
2026-01-07 12:57:06.855000+00:00,-0.032967,-0.032967
2026-01-07 12:57:06.859000+00:00,-0.032967,-0.032967
2026-01-07 12:57:06.863000+00:00,-0.032967,-0.021978
2026-01-07 12:57:06.867000+00:00,-0.021978,-0.021978
2026-01-07 12:57:06.870000+00:00,-0.010989,-0.010989
2026-01-07 12:57:06.874000+00:00,0.0,-0.010989
2026-01-07 12:57:06.878000+00:00,0.010989,0.0
2026-01-07 12:57:06.882000+00:00,0.010989,0.010989
2026-01-07 12:57:06.886000+00:00,0.010989,0.010989
2026-01-07 12:57:06.890000+00:00,0.010989,0.021978
2026-01-07 12:57:06.894000+00:00,0.021978,0.021978
2026-01-07 12:57:06.898000+00:00,0.021978,0.010989
2026-01-07 12:57:06.902000+00:00,0.032967,0.021978
2026-01-07 12:57:06.906000+00:00,0.032967,0.021978
2026-01-07 12:57:06.910000+00:00,0.032967,0.021978
2026-01-07 12:57:06.913000+00:00,0.032967,0.032967
2026-01-07 12:57:06.917000+00:00,0.043956,0.032967
2026-01-07 12:57:06.921000+00:00,0.043956,0.043956
2026-01-07 12:57:06.925000+00:00,0.054945,0.032967
2026-01-07 12:57:06.929000+00:00,0.043956,0.043956
2026-01-07 12:57:06.933000+00:00,0.032967,0.043956
2026-01-07 12:57:06.937000+00:00,0.043956,0.032967
2026-01-07 12:57:06.941000+00:00,0.043956,0.043956
2026-01-07 12:57:06.945000+00:00,0.043956,0.043956
2026-01-07 12:57:06.949000+00:00,0.043956,0.043956
2026-01-07 12:57:06.953000+00:00,0.043956,0.043956
2026-01-07 12:57:06.956000+00:00,0.043956,0.043956
2026-01-07 12:57:06.960000+00:00,0.043956,0.054945
2026-01-07 12:57:06.964000+00:00,0.054945,0.054945
2026-01-07 12:57:06.968000+00:00,0.043956,0.054945
2026-01-07 12:57:06.972000+00:00,0.043956,0.043956
2026-01-07 12:57:06.976000+00:00,0.043956,0.043956
2026-01-07 12:57:06.980000+00:00,0.043956,0.043956
2026-01-07 12:57:06.984000+00:00,0.043956,0.054945
2026-01-07 12:57:06.988000+00:00,0.043956,0.043956
2026-01-07 12:57:06.992000+00:00,0.032967,0.043956
2026-01-07 12:57:06.995000+00:00,0.032967,0.043956
2026-01-07 12:57:06.999000+00:00,0.032967,0.043956
2026-01-07 12:57:07.003000+00:00,0.043956,0.043956
2026-01-07 12:57:07.007000+00:00,0.043956,0.043956
2026-01-07 12:57:07.011000+00:00,0.043956,0.032967
2026-01-07 12:57:07.015000+00:00,0.032967,0.043956
2026-01-07 12:57:07.019000+00:00,0.032967,0.043956
2026-01-07 12:57:07.023000+00:00,0.032967,0.043956
2026-01-07 12:57:07.027000+00:00,0.032967,0.043956
2026-01-07 12:57:07.031000+00:00,0.032967,0.043956
2026-01-07 12:57:07.035000+00:00,0.032967,0.032967
2026-01-07 12:57:07.038000+00:00,0.032967,0.021978
2026-01-07 12:57:07.042000+00:00,0.021978,0.021978
2026-01-07 12:57:07.046000+00:00,0.021978,0.032967
2026-01-07 12:57:07.050000+00:00,0.032967,0.032967
2026-01-07 12:57:07.054000+00:00,0.021978,0.032967
2026-01-07 12:57:07.058000+00:00,0.021978,0.021978
2026-01-07 12:57:07.062000+00:00,0.032967,0.032967
2026-01-07 12:57:07.066000+00:00,0.032967,0.032967
2026-01-07 12:57:07.070000+00:00,0.032967,0.032967
2026-01-07 12:57:07.074000+00:00,0.032967,0.032967
2026-01-07 12:57:07.078000+00:00,0.032967,0.032967
2026-01-07 12:57:07.081000+00:00,0.032967,0.021978
2026-01-07 12:57:07.085000+00:00,0.032967,0.032967
2026-01-07 12:57:07.089000+00:00,0.032967,0.043956
2026-01-07 12:57:07.093000+00:00,0.032967,0.043956
2026-01-07 12:57:07.097000+00:00,0.043956,0.032967
2026-01-07 12:57:07.101000+00:00,0.032967,0.043956
2026-01-07 12:57:07.105000+00:00,0.032967,0.043956
2026-01-07 12:57:07.109000+00:00,0.021978,0.043956
2026-01-07 12:57:07.113000+00:00,0.032967,0.043956
2026-01-07 12:57:07.117000+00:00,0.032967,0.043956
2026-01-07 12:57:07.120000+00:00,0.032967,0.043956
2026-01-07 12:57:07.124000+00:00,0.032967,0.043956
2026-01-07 12:57:07.128000+00:00,0.021978,0.032967
2026-01-07 12:57:07.132000+00:00,0.021978,0.032967
2026-01-07 12:57:07.136000+00:00,0.021978,0.032967
2026-01-07 12:57:07.140000+00:00,0.032967,0.032967
2026-01-07 12:57:07.144000+00:00,0.032967,0.043956
2026-01-07 12:57:07.148000+00:00,0.032967,0.043956
2026-01-07 12:57:07.152000+00:00,0.032967,0.043956
2026-01-07 12:57:07.156000+00:00,0.021978,0.032967
2026-01-07 12:57:07.160000+00:00,0.021978,0.043956
2026-01-07 12:57:07.163000+00:00,0.021978,0.043956
2026-01-07 12:57:07.167000+00:00,0.021978,0.043956
2026-01-07 12:57:07.171000+00:00,0.021978,0.032967
2026-01-07 12:57:07.175000+00:00,0.021978,0.043956
2026-01-07 12:57:07.179000+00:00,0.021978,0.043956
2026-01-07 12:57:07.183000+00:00,0.021978,0.032967
2026-01-07 12:57:07.187000+00:00,0.021978,0.032967
2026-01-07 12:57:07.191000+00:00,0.021978,0.032967
2026-01-07 12:57:07.195000+00:00,0.032967,0.032967
2026-01-07 12:57:07.199000+00:00,0.032967,0.032967
2026-01-07 12:57:07.203000+00:00,0.032967,0.032967
2026-01-07 12:57:07.206000+00:00,0.021978,0.032967
2026-01-07 12:57:07.210000+00:00,0.010989,0.021978
2026-01-07 12:57:07.214000+00:00,0.021978,0.021978
2026-01-07 12:57:07.218000+00:00,0.021978,0.032967
2026-01-07 12:57:07.222000+00:00,0.021978,0.032967
2026-01-07 12:57:07.226000+00:00,0.021978,0.043956
2026-01-07 12:57:07.230000+00:00,0.021978,0.032967
2026-01-07 12:57:07.234000+00:00,0.021978,0.032967
2026-01-07 12:57:07.238000+00:00,0.010989,0.032967
2026-01-07 12:57:07.242000+00:00,0.021978,0.021978
2026-01-07 12:57:07.245000+00:00,0.021978,0.032967
2026-01-07 12:57:07.249000+00:00,0.021978,0.032967
2026-01-07 12:57:07.253000+00:00,0.021978,0.043956
2026-01-07 12:57:07.257000+00:00,0.032967,0.043956
2026-01-07 12:57:07.261000+00:00,0.032967,0.043956
2026-01-07 12:57:07.265000+00:00,0.021978,0.032967
2026-01-07 12:57:07.269000+00:00,0.032967,0.032967
2026-01-07 12:57:07.273000+00:00,0.021978,0.032967
2026-01-07 12:57:07.277000+00:00,0.021978,0.032967
2026-01-07 12:57:07.281000+00:00,0.021978,0.032967
2026-01-07 12:57:07.285000+00:00,0.032967,0.032967
2026-01-07 12:57:07.288000+00:00,0.032967,0.032967
2026-01-07 12:57:07.292000+00:00,0.032967,0.032967
2026-01-07 12:57:07.296000+00:00,0.021978,0.021978
2026-01-07 12:57:07.300000+00:00,0.021978,0.021978
2026-01-07 12:57:07.304000+00:00,0.010989,0.032967
2026-01-07 12:57:07.308000+00:00,0.021978,0.032967
2026-01-07 12:57:07.312000+00:00,0.021978,0.032967
2026-01-07 12:57:07.316000+00:00,0.032967,0.032967
2026-01-07 12:57:07.320000+00:00,0.032967,0.043956
2026-01-07 12:57:07.324000+00:00,0.021978,0.032967
2026-01-07 12:57:07.328000+00:00,0.032967,0.032967
2026-01-07 12:57:07.331000+00:00,0.021978,0.043956
2026-01-07 12:57:07.335000+00:00,0.021978,0.032967
2026-01-07 12:57:07.339000+00:00,0.010989,0.043956
2026-01-07 12:57:07.343000+00:00,0.010989,0.043956
2026-01-07 12:57:07.347000+00:00,0.021978,0.043956
2026-01-07 12:57:07.351000+00:00,0.032967,0.043956
2026-01-07 12:57:07.355000+00:00,0.032967,0.043956
2026-01-07 12:57:07.359000+00:00,0.032967,0.032967
2026-01-07 12:57:07.363000+00:00,0.032967,0.032967
2026-01-07 12:57:07.367000+00:00,0.054945,0.043956
2026-01-07 12:57:07.370000+00:00,0.043956,0.043956
2026-01-07 12:57:07.374000+00:00,0.043956,0.043956
2026-01-07 12:57:07.378000+00:00,0.043956,0.043956
2026-01-07 12:57:07.382000+00:00,0.043956,0.032967
2026-01-07 12:57:07.386000+00:00,0.032967,0.021978
2026-01-07 12:57:07.390000+00:00,0.032967,0.021978
2026-01-07 12:57:07.394000+00:00,0.021978,0.021978
2026-01-07 12:57:07.398000+00:00,0.021978,0.010989
2026-01-07 12:57:07.402000+00:00,0.0,0.010989
2026-01-07 12:57:07.406000+00:00,0.0,0.010989
2026-01-07 12:57:07.410000+00:00,0.010989,0.021978
2026-01-07 12:57:07.413000+00:00,0.010989,0.010989
2026-01-07 12:57:07.417000+00:00,0.032967,0.021978
2026-01-07 12:57:07.421000+00:00,0.032967,0.021978
2026-01-07 12:57:07.425000+00:00,0.021978,0.021978
2026-01-07 12:57:07.429000+00:00,0.021978,0.021978
2026-01-07 12:57:07.433000+00:00,0.032967,0.021978
2026-01-07 12:57:07.437000+00:00,0.021978,0.032967
2026-01-07 12:57:07.441000+00:00,0.021978,0.032967
2026-01-07 12:57:07.445000+00:00,0.010989,0.032967
2026-01-07 12:57:07.449000+00:00,0.010989,0.032967
2026-01-07 12:57:07.453000+00:00,0.010989,0.032967
2026-01-07 12:57:07.456000+00:00,0.021978,0.043956
2026-01-07 12:57:07.460000+00:00,0.021978,0.032967
2026-01-07 12:57:07.464000+00:00,0.032967,0.032967
2026-01-07 12:57:07.468000+00:00,0.010989,0.021978
2026-01-07 12:57:07.472000+00:00,0.0,0.010989
2026-01-07 12:57:07.476000+00:00,-0.043956,0.0
2026-01-07 12:57:07.480000+00:00,-0.043956,0.021978
2026-01-07 12:57:07.484000+00:00,0.043956,0.10989
2026-01-07 12:57:07.488000+00:00,0.208791,0.274725
2026-01-07 12:57:07.492000+00:00,0.406593,0.450549
2026-01-07 12:57:07.495000+00:00,0.582417,0.593406
2026-01-07 12:57:07.499000+00:00,0.714285,0.670329
2026-01-07 12:57:07.503000+00:00,0.780219,0.692307
2026-01-07 12:57:07.507000+00:00,0.736263,0.604395
2026-01-07 12:57:07.511000+00:00,0.54945,0.351648
2026-01-07 12:57:07.515000+00:00,0.098901,-0.076923
2026-01-07 12:57:07.519000+00:00,-0.318681,-0.428571
2026-01-07 12:57:07.523000+00:00,-0.615384,-0.670329
2026-01-07 12:57:07.527000+00:00,-0.703296,-0.703296
2026-01-07 12:57:07.531000+00:00,-0.582417,-0.54945
2026-01-07 12:57:07.535000+00:00,-0.428571,-0.373626
2026-01-07 12:57:07.538000+00:00,-0.296703,-0.230769
2026-01-07 12:57:07.542000+00:00,-0.197802,-0.10989
2026-01-07 12:57:07.546000+00:00,-0.131868,-0.043956
2026-01-07 12:57:07.550000+00:00,-0.087912,-0.021978
2026-01-07 12:57:07.554000+00:00,-0.065934,0.0
2026-01-07 12:57:07.558000+00:00,-0.032967,0.021978
2026-01-07 12:57:07.562000+00:00,-0.021978,0.032967
2026-01-07 12:57:07.566000+00:00,-0.021978,0.021978
2026-01-07 12:57:07.570000+00:00,-0.010989,0.021978
2026-01-07 12:57:07.574000+00:00,0.0,0.021978
2026-01-07 12:57:07.578000+00:00,0.010989,0.032967
2026-01-07 12:57:07.581000+00:00,0.021978,0.032967
2026-01-07 12:57:07.585000+00:00,0.021978,0.032967
2026-01-07 12:57:07.589000+00:00,0.043956,0.043956
2026-01-07 12:57:07.593000+00:00,0.043956,0.032967
2026-01-07 12:57:07.597000+00:00,0.032967,0.043956
2026-01-07 12:57:07.601000+00:00,0.021978,0.043956
2026-01-07 12:57:07.605000+00:00,0.021978,0.043956
2026-01-07 12:57:07.609000+00:00,0.021978,0.043956
2026-01-07 12:57:07.613000+00:00,0.032967,0.043956
2026-01-07 12:57:07.617000+00:00,0.043956,0.054945
2026-01-07 12:57:07.620000+00:00,0.043956,0.054945
2026-01-07 12:57:07.624000+00:00,0.043956,0.054945
2026-01-07 12:57:07.628000+00:00,0.043956,0.054945
2026-01-07 12:57:07.632000+00:00,0.043956,0.043956
2026-01-07 12:57:07.636000+00:00,0.032967,0.054945
2026-01-07 12:57:07.640000+00:00,0.032967,0.054945
2026-01-07 12:57:07.644000+00:00,0.043956,0.054945
2026-01-07 12:57:07.648000+00:00,0.043956,0.043956
2026-01-07 12:57:07.652000+00:00,0.032967,0.054945
2026-01-07 12:57:07.656000+00:00,0.032967,0.065934
2026-01-07 12:57:07.660000+00:00,0.032967,0.043956
2026-01-07 12:57:07.663000+00:00,0.043956,0.043956
2026-01-07 12:57:07.667000+00:00,0.043956,0.054945
2026-01-07 12:57:07.671000+00:00,0.054945,0.054945
2026-01-07 12:57:07.675000+00:00,0.054945,0.054945
2026-01-07 12:57:07.679000+00:00,0.065934,0.065934
2026-01-07 12:57:07.683000+00:00,0.065934,0.065934
2026-01-07 12:57:07.687000+00:00,0.054945,0.065934
2026-01-07 12:57:07.691000+00:00,0.054945,0.076923
2026-01-07 12:57:07.695000+00:00,0.065934,0.076923
2026-01-07 12:57:07.699000+00:00,0.076923,0.076923
2026-01-07 12:57:07.703000+00:00,0.076923,0.076923
2026-01-07 12:57:07.706000+00:00,0.076923,0.076923
2026-01-07 12:57:07.710000+00:00,0.065934,0.076923
2026-01-07 12:57:07.714000+00:00,0.065934,0.065934
2026-01-07 12:57:07.718000+00:00,0.054945,0.054945
2026-01-07 12:57:07.722000+00:00,0.043956,0.043956
2026-01-07 12:57:07.726000+00:00,0.032967,0.043956
2026-01-07 12:57:07.730000+00:00,0.021978,0.032967
2026-01-07 12:57:07.734000+00:00,0.021978,0.032967
2026-01-07 12:57:07.738000+00:00,0.010989,0.032967
2026-01-07 12:57:07.742000+00:00,0.021978,0.032967
2026-01-07 12:57:07.745000+00:00,0.010989,0.021978
2026-01-07 12:57:07.749000+00:00,-0.010989,0.010989
2026-01-07 12:57:07.753000+00:00,-0.010989,0.0
2026-01-07 12:57:07.757000+00:00,-0.032967,-0.010989
2026-01-07 12:57:07.761000+00:00,-0.021978,-0.021978
2026-01-07 12:57:07.765000+00:00,-0.032967,-0.032967
2026-01-07 12:57:07.769000+00:00,-0.032967,-0.043956
2026-01-07 12:57:07.773000+00:00,-0.043956,-0.032967
2026-01-07 12:57:07.777000+00:00,-0.043956,-0.032967
2026-01-07 12:57:07.781000+00:00,-0.043956,-0.021978
2026-01-07 12:57:07.785000+00:00,-0.032967,-0.021978
2026-01-07 12:57:07.788000+00:00,-0.032967,-0.032967
2026-01-07 12:57:07.792000+00:00,-0.032967,-0.021978
2026-01-07 12:57:07.796000+00:00,-0.032967,-0.010989
2026-01-07 12:57:07.800000+00:00,-0.032967,-0.010989
2026-01-07 12:57:07.804000+00:00,-0.010989,0.0
2026-01-07 12:57:07.808000+00:00,-0.010989,0.0
2026-01-07 12:57:07.812000+00:00,0.0,0.0
2026-01-07 12:57:07.816000+00:00,0.010989,0.010989
2026-01-07 12:57:07.820000+00:00,0.010989,0.010989
2026-01-07 12:57:07.824000+00:00,0.010989,0.010989
2026-01-07 12:57:07.828000+00:00,0.010989,0.021978
2026-01-07 12:57:07.831000+00:00,0.010989,0.021978
2026-01-07 12:57:07.835000+00:00,0.021978,0.021978
2026-01-07 12:57:07.839000+00:00,0.032967,0.032967
2026-01-07 12:57:07.843000+00:00,0.032967,0.032967
2026-01-07 12:57:07.847000+00:00,0.032967,0.032967
2026-01-07 12:57:07.851000+00:00,0.032967,0.032967
2026-01-07 12:57:07.855000+00:00,0.021978,0.032967
2026-01-07 12:57:07.859000+00:00,0.021978,0.032967
2026-01-07 12:57:07.863000+00:00,0.043956,0.032967
2026-01-07 12:57:07.867000+00:00,0.043956,0.032967
2026-01-07 12:57:07.870000+00:00,0.032967,0.032967
2026-01-07 12:57:07.874000+00:00,0.032967,0.032967
2026-01-07 12:57:07.878000+00:00,0.032967,0.043956
2026-01-07 12:57:07.882000+00:00,0.021978,0.054945
2026-01-07 12:57:07.886000+00:00,0.032967,0.043956
2026-01-07 12:57:07.890000+00:00,0.032967,0.032967
2026-01-07 12:57:07.894000+00:00,0.032967,0.032967
2026-01-07 12:57:07.898000+00:00,0.032967,0.043956
2026-01-07 12:57:07.902000+00:00,0.032967,0.043956
2026-01-07 12:57:07.906000+00:00,0.032967,0.032967
2026-01-07 12:57:07.910000+00:00,0.032967,0.032967
2026-01-07 12:57:07.913000+00:00,0.032967,0.032967
2026-01-07 12:57:07.917000+00:00,0.043956,0.054945
2026-01-07 12:57:07.921000+00:00,0.032967,0.043956
2026-01-07 12:57:07.925000+00:00,0.032967,0.043956
2026-01-07 12:57:07.929000+00:00,0.043956,0.043956
2026-01-07 12:57:07.933000+00:00,0.032967,0.054945
2026-01-07 12:57:07.937000+00:00,0.032967,0.054945
2026-01-07 12:57:07.941000+00:00,0.021978,0.032967
2026-01-07 12:57:07.945000+00:00,0.021978,0.032967
2026-01-07 12:57:07.949000+00:00,0.021978,0.032967
2026-01-07 12:57:07.953000+00:00,0.021978,0.043956
2026-01-07 12:57:07.956000+00:00,0.021978,0.032967
2026-01-07 12:57:07.960000+00:00,0.021978,0.032967
2026-01-07 12:57:07.964000+00:00,0.021978,0.032967
2026-01-07 12:57:07.968000+00:00,0.021978,0.021978
2026-01-07 12:57:07.972000+00:00,0.032967,0.021978
2026-01-07 12:57:07.976000+00:00,0.021978,0.021978
2026-01-07 12:57:07.980000+00:00,0.021978,0.021978
2026-01-07 12:57:07.984000+00:00,0.032967,0.032967
2026-01-07 12:57:07.988000+00:00,0.021978,0.043956
2026-01-07 12:57:07.992000+00:00,0.021978,0.032967
2026-01-07 12:57:07.995000+00:00,0.021978,0.032967
2026-01-07 12:57:07.999000+00:00,0.021978,0.032967
2026-01-07 12:57:08.003000+00:00,0.032967,0.032967
2026-01-07 12:57:08.007000+00:00,0.021978,0.032967
2026-01-07 12:57:08.011000+00:00,0.032967,0.032967
2026-01-07 12:57:08.015000+00:00,0.021978,0.032967
2026-01-07 12:57:08.019000+00:00,0.021978,0.032967
2026-01-07 12:57:08.023000+00:00,0.021978,0.043956
2026-01-07 12:57:08.027000+00:00,0.032967,0.032967
2026-01-07 12:57:08.031000+00:00,0.021978,0.032967
2026-01-07 12:57:08.035000+00:00,0.021978,0.043956
2026-01-07 12:57:08.038000+00:00,0.021978,0.021978
2026-01-07 12:57:08.042000+00:00,0.021978,0.021978
2026-01-07 12:57:08.046000+00:00,0.021978,0.032967
2026-01-07 12:57:08.050000+00:00,0.021978,0.032967
2026-01-07 12:57:08.054000+00:00,0.021978,0.032967
2026-01-07 12:57:08.058000+00:00,0.021978,0.032967
2026-01-07 12:57:08.062000+00:00,0.032967,0.032967
2026-01-07 12:57:08.066000+00:00,0.032967,0.032967
2026-01-07 12:57:08.070000+00:00,0.021978,0.043956
2026-01-07 12:57:08.074000+00:00,0.021978,0.032967
2026-01-07 12:57:08.078000+00:00,0.021978,0.043956
2026-01-07 12:57:08.081000+00:00,0.021978,0.032967
2026-01-07 12:57:08.085000+00:00,0.021978,0.032967
2026-01-07 12:57:08.089000+00:00,0.032967,0.032967
2026-01-07 12:57:08.093000+00:00,0.032967,0.032967
2026-01-07 12:57:08.097000+00:00,0.021978,0.032967
2026-01-07 12:57:08.101000+00:00,0.021978,0.032967
2026-01-07 12:57:08.105000+00:00,0.021978,0.032967
2026-01-07 12:57:08.109000+00:00,0.032967,0.032967
2026-01-07 12:57:08.113000+00:00,0.032967,0.032967
2026-01-07 12:57:08.117000+00:00,0.032967,0.032967
2026-01-07 12:57:08.120000+00:00,0.032967,0.032967
2026-01-07 12:57:08.124000+00:00,0.021978,0.021978
2026-01-07 12:57:08.128000+00:00,0.021978,0.021978
2026-01-07 12:57:08.132000+00:00,0.032967,0.032967
2026-01-07 12:57:08.136000+00:00,0.032967,0.032967
2026-01-07 12:57:08.140000+00:00,0.021978,0.032967
2026-01-07 12:57:08.144000+00:00,0.021978,0.021978
2026-01-07 12:57:08.148000+00:00,0.021978,0.021978
2026-01-07 12:57:08.152000+00:00,0.032967,0.032967
2026-01-07 12:57:08.156000+00:00,0.032967,0.032967
2026-01-07 12:57:08.160000+00:00,0.032967,0.032967
2026-01-07 12:57:08.163000+00:00,0.032967,0.032967
2026-01-07 12:57:08.167000+00:00,0.021978,0.032967
2026-01-07 12:57:08.171000+00:00,0.021978,0.032967
2026-01-07 12:57:08.175000+00:00,0.021978,0.032967
2026-01-07 12:57:08.179000+00:00,0.021978,0.032967
2026-01-07 12:57:08.183000+00:00,0.021978,0.032967
2026-01-07 12:57:08.187000+00:00,0.021978,0.032967
2026-01-07 12:57:08.191000+00:00,0.021978,0.032967
2026-01-07 12:57:08.195000+00:00,0.021978,0.021978
2026-01-07 12:57:08.199000+00:00,0.032967,0.032967
2026-01-07 12:57:08.203000+00:00,0.021978,0.021978
2026-01-07 12:57:08.206000+00:00,0.032967,0.032967
2026-01-07 12:57:08.210000+00:00,0.021978,0.043956
2026-01-07 12:57:08.214000+00:00,0.021978,0.043956
2026-01-07 12:57:08.218000+00:00,0.021978,0.043956
2026-01-07 12:57:08.222000+00:00,0.010989,0.043956
2026-01-07 12:57:08.226000+00:00,0.021978,0.032967
2026-01-07 12:57:08.230000+00:00,0.010989,0.032967
2026-01-07 12:57:08.234000+00:00,0.010989,0.032967
2026-01-07 12:57:08.238000+00:00,0.010989,0.043956
2026-01-07 12:57:08.242000+00:00,0.021978,0.043956
2026-01-07 12:57:08.245000+00:00,0.021978,0.032967
2026-01-07 12:57:08.249000+00:00,0.021978,0.032967
2026-01-07 12:57:08.253000+00:00,0.032967,0.032967
2026-01-07 12:57:08.257000+00:00,0.032967,0.043956
2026-01-07 12:57:08.261000+00:00,0.043956,0.043956
2026-01-07 12:57:08.265000+00:00,0.043956,0.043956
2026-01-07 12:57:08.269000+00:00,0.043956,0.043956
2026-01-07 12:57:08.273000+00:00,0.043956,0.043956
2026-01-07 12:57:08.277000+00:00,0.043956,0.032967
2026-01-07 12:57:08.281000+00:00,0.032967,0.032967
2026-01-07 12:57:08.285000+00:00,0.021978,0.021978
2026-01-07 12:57:08.288000+00:00,0.010989,0.010989
2026-01-07 12:57:08.292000+00:00,0.010989,0.010989
2026-01-07 12:57:08.296000+00:00,0.010989,0.010989
2026-01-07 12:57:08.300000+00:00,0.010989,0.010989
2026-01-07 12:57:08.304000+00:00,0.010989,0.010989
2026-01-07 12:57:08.308000+00:00,0.010989,0.021978
2026-01-07 12:57:08.312000+00:00,0.010989,0.021978
2026-01-07 12:57:08.316000+00:00,0.010989,0.010989
2026-01-07 12:57:08.320000+00:00,0.021978,0.021978
2026-01-07 12:57:08.324000+00:00,0.021978,0.021978
2026-01-07 12:57:08.328000+00:00,0.021978,0.032967
2026-01-07 12:57:08.331000+00:00,0.032967,0.021978
2026-01-07 12:57:08.335000+00:00,0.021978,0.032967
2026-01-07 12:57:08.339000+00:00,0.021978,0.032967
2026-01-07 12:57:08.343000+00:00,0.021978,0.032967
2026-01-07 12:57:08.347000+00:00,0.021978,0.043956
2026-01-07 12:57:08.351000+00:00,0.021978,0.043956
2026-01-07 12:57:08.355000+00:00,0.032967,0.043956
2026-01-07 12:57:08.359000+00:00,0.032967,0.043956
2026-01-07 12:57:08.363000+00:00,0.032967,0.032967
2026-01-07 12:57:08.367000+00:00,0.010989,0.021978
2026-01-07 12:57:08.370000+00:00,-0.032967,0.0
2026-01-07 12:57:08.374000+00:00,-0.054945,0.0
2026-01-07 12:57:08.378000+00:00,-0.032967,0.032967
2026-01-07 12:57:08.382000+00:00,0.076923,0.153846
2026-01-07 12:57:08.386000+00:00,0.263736,0.32967
2026-01-07 12:57:08.390000+00:00,0.461538,0.516483
2026-01-07 12:57:08.394000+00:00,0.637362,0.648351
2026-01-07 12:57:08.398000+00:00,0.758241,0.703296
2026-01-07 12:57:08.402000+00:00,0.813186,0.714285
2026-01-07 12:57:08.406000+00:00,0.76923,0.604395
2026-01-07 12:57:08.410000+00:00,0.516483,0.307692
2026-01-07 12:57:08.413000+00:00,0.010989,-0.164835
2026-01-07 12:57:08.417000+00:00,-0.406593,-0.527472
2026-01-07 12:57:08.421000+00:00,-0.703296,-0.736263
2026-01-07 12:57:08.425000+00:00,-0.725274,-0.714285
2026-01-07 12:57:08.429000+00:00,-0.571428,-0.527472
2026-01-07 12:57:08.433000+00:00,-0.406593,-0.340659
2026-01-07 12:57:08.437000+00:00,-0.274725,-0.197802
2026-01-07 12:57:08.441000+00:00,-0.186813,-0.087912
2026-01-07 12:57:08.445000+00:00,-0.131868,-0.043956
2026-01-07 12:57:08.449000+00:00,-0.087912,-0.010989
2026-01-07 12:57:08.453000+00:00,-0.065934,0.0
2026-01-07 12:57:08.456000+00:00,-0.043956,0.0
2026-01-07 12:57:08.460000+00:00,-0.032967,0.010989
2026-01-07 12:57:08.464000+00:00,-0.021978,0.021978
2026-01-07 12:57:08.468000+00:00,-0.010989,0.021978
2026-01-07 12:57:08.472000+00:00,0.010989,0.021978
2026-01-07 12:57:08.476000+00:00,0.021978,0.032967
2026-01-07 12:57:08.480000+00:00,0.021978,0.043956
2026-01-07 12:57:08.484000+00:00,0.032967,0.043956
2026-01-07 12:57:08.488000+00:00,0.032967,0.043956
2026-01-07 12:57:08.492000+00:00,0.032967,0.043956
2026-01-07 12:57:08.495000+00:00,0.032967,0.043956
2026-01-07 12:57:08.499000+00:00,0.032967,0.043956
2026-01-07 12:57:08.503000+00:00,0.032967,0.054945
2026-01-07 12:57:08.507000+00:00,0.032967,0.043956
2026-01-07 12:57:08.511000+00:00,0.032967,0.054945
2026-01-07 12:57:08.515000+00:00,0.032967,0.043956
2026-01-07 12:57:08.519000+00:00,0.043956,0.054945
2026-01-07 12:57:08.523000+00:00,0.032967,0.043956
2026-01-07 12:57:08.527000+00:00,0.032967,0.054945
2026-01-07 12:57:08.531000+00:00,0.032967,0.043956
2026-01-07 12:57:08.535000+00:00,0.043956,0.043956
2026-01-07 12:57:08.538000+00:00,0.043956,0.032967
2026-01-07 12:57:08.542000+00:00,0.043956,0.043956
2026-01-07 12:57:08.546000+00:00,0.032967,0.043956
2026-01-07 12:57:08.550000+00:00,0.032967,0.043956
2026-01-07 12:57:08.554000+00:00,0.043956,0.054945
2026-01-07 12:57:08.558000+00:00,0.043956,0.054945
2026-01-07 12:57:08.562000+00:00,0.054945,0.065934
2026-01-07 12:57:08.566000+00:00,0.043956,0.065934
2026-01-07 12:57:08.570000+00:00,0.054945,0.054945
2026-01-07 12:57:08.574000+00:00,0.054945,0.054945
2026-01-07 12:57:08.578000+00:00,0.054945,0.065934
2026-01-07 12:57:08.581000+00:00,0.054945,0.065934
2026-01-07 12:57:08.585000+00:00,0.054945,0.065934
2026-01-07 12:57:08.589000+00:00,0.054945,0.076923
2026-01-07 12:57:08.593000+00:00,0.054945,0.065934
2026-01-07 12:57:08.597000+00:00,0.054945,0.065934
2026-01-07 12:57:08.601000+00:00,0.065934,0.065934
2026-01-07 12:57:08.605000+00:00,0.065934,0.065934
2026-01-07 12:57:08.609000+00:00,0.054945,0.065934
2026-01-07 12:57:08.613000+00:00,0.054945,0.054945
2026-01-07 12:57:08.617000+00:00,0.043956,0.054945
2026-01-07 12:57:08.620000+00:00,0.043956,0.043956
2026-01-07 12:57:08.624000+00:00,0.043956,0.032967
2026-01-07 12:57:08.628000+00:00,0.032967,0.032967
2026-01-07 12:57:08.632000+00:00,0.021978,0.021978
2026-01-07 12:57:08.636000+00:00,0.021978,0.021978
2026-01-07 12:57:08.640000+00:00,0.010989,0.021978
2026-01-07 12:57:08.644000+00:00,0.0,0.010989
2026-01-07 12:57:08.648000+00:00,0.0,0.0
2026-01-07 12:57:08.652000+00:00,-0.010989,0.0
2026-01-07 12:57:08.656000+00:00,-0.021978,-0.021978
2026-01-07 12:57:08.660000+00:00,-0.032967,-0.021978
2026-01-07 12:57:08.663000+00:00,-0.043956,-0.021978
2026-01-07 12:57:08.667000+00:00,-0.043956,-0.032967
2026-01-07 12:57:08.671000+00:00,-0.032967,-0.032967
2026-01-07 12:57:08.675000+00:00,-0.032967,-0.043956
2026-01-07 12:57:08.679000+00:00,-0.032967,-0.032967
2026-01-07 12:57:08.683000+00:00,-0.021978,-0.032967
2026-01-07 12:57:08.687000+00:00,-0.010989,-0.021978
2026-01-07 12:57:08.691000+00:00,-0.010989,-0.021978
2026-01-07 12:57:08.695000+00:00,0.0,-0.021978
2026-01-07 12:57:08.699000+00:00,0.0,-0.010989
2026-01-07 12:57:08.703000+00:00,0.0,0.0
2026-01-07 12:57:08.706000+00:00,0.010989,0.0
2026-01-07 12:57:08.710000+00:00,0.0,0.0
2026-01-07 12:57:08.714000+00:00,0.010989,0.010989
2026-01-07 12:57:08.718000+00:00,0.021978,0.021978
2026-01-07 12:57:08.722000+00:00,0.021978,0.021978
2026-01-07 12:57:08.726000+00:00,0.021978,0.021978
2026-01-07 12:57:08.730000+00:00,0.032967,0.021978
2026-01-07 12:57:08.734000+00:00,0.032967,0.032967
2026-01-07 12:57:08.738000+00:00,0.032967,0.032967
2026-01-07 12:57:08.742000+00:00,0.032967,0.032967
2026-01-07 12:57:08.745000+00:00,0.032967,0.032967
2026-01-07 12:57:08.749000+00:00,0.043956,0.043956
2026-01-07 12:57:08.753000+00:00,0.043956,0.043956
2026-01-07 12:57:08.757000+00:00,0.043956,0.043956
2026-01-07 12:57:08.761000+00:00,0.043956,0.043956
2026-01-07 12:57:08.765000+00:00,0.043956,0.043956
2026-01-07 12:57:08.769000+00:00,0.043956,0.054945
2026-01-07 12:57:08.773000+00:00,0.043956,0.043956
2026-01-07 12:57:08.777000+00:00,0.043956,0.054945
2026-01-07 12:57:08.781000+00:00,0.043956,0.043956
2026-01-07 12:57:08.785000+00:00,0.043956,0.043956
2026-01-07 12:57:08.788000+00:00,0.043956,0.043956
2026-01-07 12:57:08.792000+00:00,0.043956,0.043956
2026-01-07 12:57:08.796000+00:00,0.043956,0.043956
2026-01-07 12:57:08.800000+00:00,0.043956,0.054945
2026-01-07 12:57:08.804000+00:00,0.054945,0.043956
2026-01-07 12:57:08.808000+00:00,0.043956,0.043956
2026-01-07 12:57:08.812000+00:00,0.043956,0.043956
2026-01-07 12:57:08.816000+00:00,0.043956,0.054945
2026-01-07 12:57:08.820000+00:00,0.043956,0.043956
2026-01-07 12:57:08.824000+00:00,0.043956,0.043956
2026-01-07 12:57:08.828000+00:00,0.032967,0.043956
2026-01-07 12:57:08.831000+00:00,0.043956,0.043956
2026-01-07 12:57:08.835000+00:00,0.032967,0.032967
2026-01-07 12:57:08.839000+00:00,0.032967,0.043956
2026-01-07 12:57:08.843000+00:00,0.043956,0.032967
2026-01-07 12:57:08.847000+00:00,0.043956,0.043956
2026-01-07 12:57:08.851000+00:00,0.032967,0.032967
2026-01-07 12:57:08.855000+00:00,0.032967,0.043956
2026-01-07 12:57:08.859000+00:00,0.032967,0.032967
2026-01-07 12:57:08.863000+00:00,0.032967,0.043956
2026-01-07 12:57:08.867000+00:00,0.032967,0.032967
2026-01-07 12:57:08.870000+00:00,0.032967,0.032967
2026-01-07 12:57:08.874000+00:00,0.032967,0.032967
2026-01-07 12:57:08.878000+00:00,0.021978,0.021978
2026-01-07 12:57:08.882000+00:00,0.021978,0.032967
2026-01-07 12:57:08.886000+00:00,0.021978,0.032967
2026-01-07 12:57:08.890000+00:00,0.021978,0.032967
2026-01-07 12:57:08.894000+00:00,0.021978,0.032967
2026-01-07 12:57:08.898000+00:00,0.021978,0.021978
2026-01-07 12:57:08.902000+00:00,0.032967,0.032967
2026-01-07 12:57:08.906000+00:00,0.032967,0.021978
2026-01-07 12:57:08.910000+00:00,0.021978,0.021978
2026-01-07 12:57:08.913000+00:00,0.021978,0.032967
2026-01-07 12:57:08.917000+00:00,0.021978,0.032967
2026-01-07 12:57:08.921000+00:00,0.032967,0.032967
2026-01-07 12:57:08.925000+00:00,0.032967,0.032967
2026-01-07 12:57:08.929000+00:00,0.021978,0.032967
2026-01-07 12:57:08.933000+00:00,0.032967,0.032967
2026-01-07 12:57:08.937000+00:00,0.032967,0.032967
2026-01-07 12:57:08.941000+00:00,0.032967,0.032967
2026-01-07 12:57:08.945000+00:00,0.021978,0.021978
2026-01-07 12:57:08.949000+00:00,0.021978,0.032967
2026-01-07 12:57:08.953000+00:00,0.021978,0.032967
2026-01-07 12:57:08.956000+00:00,0.021978,0.032967
2026-01-07 12:57:08.960000+00:00,0.032967,0.032967
2026-01-07 12:57:08.964000+00:00,0.021978,0.032967
2026-01-07 12:57:08.968000+00:00,0.032967,0.032967
2026-01-07 12:57:08.972000+00:00,0.032967,0.032967
2026-01-07 12:57:08.976000+00:00,0.021978,0.032967
2026-01-07 12:57:08.980000+00:00,0.021978,0.032967
2026-01-07 12:57:08.984000+00:00,0.021978,0.032967
2026-01-07 12:57:08.988000+00:00,0.032967,0.032967
2026-01-07 12:57:08.992000+00:00,0.032967,0.032967
2026-01-07 12:57:08.995000+00:00,0.032967,0.032967
2026-01-07 12:57:08.999000+00:00,0.032967,0.032967
2026-01-07 12:57:09.003000+00:00,0.032967,0.032967
2026-01-07 12:57:09.007000+00:00,0.032967,0.032967
2026-01-07 12:57:09.011000+00:00,0.032967,0.032967
2026-01-07 12:57:09.015000+00:00,0.021978,0.032967
2026-01-07 12:57:09.019000+00:00,0.032967,0.032967
2026-01-07 12:57:09.023000+00:00,0.032967,0.032967
2026-01-07 12:57:09.027000+00:00,0.021978,0.043956
2026-01-07 12:57:09.031000+00:00,0.032967,0.043956
2026-01-07 12:57:09.035000+00:00,0.032967,0.043956
2026-01-07 12:57:09.038000+00:00,0.032967,0.032967
2026-01-07 12:57:09.042000+00:00,0.032967,0.032967
2026-01-07 12:57:09.046000+00:00,0.032967,0.032967
2026-01-07 12:57:09.050000+00:00,0.021978,0.043956
2026-01-07 12:57:09.054000+00:00,0.021978,0.032967
2026-01-07 12:57:09.058000+00:00,0.032967,0.032967
2026-01-07 12:57:09.062000+00:00,0.032967,0.032967
2026-01-07 12:57:09.066000+00:00,0.021978,0.043956
2026-01-07 12:57:09.070000+00:00,0.021978,0.032967
2026-01-07 12:57:09.074000+00:00,0.032967,0.032967
2026-01-07 12:57:09.078000+00:00,0.032967,0.032967
2026-01-07 12:57:09.081000+00:00,0.021978,0.032967
2026-01-07 12:57:09.085000+00:00,0.021978,0.043956
2026-01-07 12:57:09.089000+00:00,0.032967,0.032967
2026-01-07 12:57:09.093000+00:00,0.032967,0.032967
2026-01-07 12:57:09.097000+00:00,0.032967,0.032967
2026-01-07 12:57:09.101000+00:00,0.032967,0.032967
2026-01-07 12:57:09.105000+00:00,0.021978,0.032967
2026-01-07 12:57:09.109000+00:00,0.032967,0.032967
2026-01-07 12:57:09.113000+00:00,0.021978,0.043956
2026-01-07 12:57:09.117000+00:00,0.021978,0.043956
2026-01-07 12:57:09.120000+00:00,0.021978,0.032967
2026-01-07 12:57:09.124000+00:00,0.032967,0.032967
2026-01-07 12:57:09.128000+00:00,0.032967,0.032967
2026-01-07 12:57:09.132000+00:00,0.032967,0.043956
2026-01-07 12:57:09.136000+00:00,0.032967,0.043956
2026-01-07 12:57:09.140000+00:00,0.021978,0.043956
2026-01-07 12:57:09.144000+00:00,0.032967,0.043956
2026-01-07 12:57:09.148000+00:00,0.032967,0.054945
2026-01-07 12:57:09.152000+00:00,0.021978,0.054945
2026-01-07 12:57:09.156000+00:00,0.021978,0.043956
2026-01-07 12:57:09.160000+00:00,0.021978,0.032967
2026-01-07 12:57:09.163000+00:00,0.021978,0.032967
2026-01-07 12:57:09.167000+00:00,0.032967,0.032967
2026-01-07 12:57:09.171000+00:00,0.032967,0.032967
2026-01-07 12:57:09.175000+00:00,0.043956,0.032967
2026-01-07 12:57:09.179000+00:00,0.043956,0.032967
2026-01-07 12:57:09.183000+00:00,0.054945,0.043956
2026-01-07 12:57:09.187000+00:00,0.054945,0.054945
